Date,Low,Open,Volume,High,Close,Adjusted Close
04-10-1989,2.4375,2.46875,20636000,2.546875,2.5,1.790514349937439
05-10-1989,2.5,2.515625,6453600,2.625,2.578125,1.8464666604995728
06-10-1989,2.546875,2.59375,2755200,2.625,2.546875,1.8240864276885986
09-10-1989,2.5,2.546875,1084000,2.546875,2.546875,1.8240864276885986
10-10-1989,2.5,2.5625,1493600,2.5625,2.53125,1.8128951787948608
11-10-1989,2.46875,2.5,1260000,2.515625,2.515625,1.8017044067382812
12-10-1989,2.515625,2.515625,602400,2.546875,2.53125,1.8128951787948608
13-10-1989,2.46875,2.53125,3970400,2.53125,2.484375,1.7793232202529907
16-10-1989,2.375,2.375,3924800,2.46875,2.46875,1.768131971359253
17-10-1989,2.4375,2.4375,1843200,2.5,2.5,1.790514349937439
18-10-1989,2.484375,2.5,1128000,2.5625,2.546875,1.8240864276885986
19-10-1989,2.53125,2.53125,1040000,2.546875,2.546875,1.8240864276885986
20-10-1989,2.515625,2.53125,237600,2.53125,2.53125,1.8128951787948608
23-10-1989,2.546875,2.546875,87200,2.5625,2.546875,1.8240864276885986
24-10-1989,2.53125,2.546875,689600,2.5625,2.5625,1.8352768421173096
25-10-1989,2.515625,2.546875,608000,2.578125,2.546875,1.8240864276885986
26-10-1989,2.546875,2.546875,228800,2.5625,2.546875,1.8240864276885986
27-10-1989,2.5,2.546875,456000,2.546875,2.515625,1.8017044067382812
30-10-1989,2.5,2.515625,250400,2.515625,2.5,1.790514349937439
31-10-1989,2.5,2.5,424800,2.515625,2.5,1.790514349937439
01-11-1989,2.515625,2.515625,715200,2.5625,2.5625,1.8352768421173096
02-11-1989,2.59375,2.59375,130400,2.640625,2.640625,1.8912310600280762
03-11-1989,2.625,2.625,1118400,2.75,2.734375,1.9583743810653687
06-11-1989,2.578125,2.71875,264800,2.71875,2.578125,1.8464666604995728
07-11-1989,2.5,2.546875,727200,2.6875,2.6875,1.9248020648956299
08-11-1989,2.671875,2.6875,236800,2.71875,2.71875,1.947184681892395
09-11-1989,2.6875,2.71875,60800,2.71875,2.6875,1.9248020648956299
10-11-1989,2.546875,2.6875,210400,2.6875,2.5625,1.8352768421173096
13-11-1989,2.515625,2.5625,92800,2.5625,2.546875,1.8240864276885986
14-11-1989,2.484375,2.578125,428000,2.578125,2.53125,1.8128951787948608
15-11-1989,2.53125,2.546875,176000,2.578125,2.5625,1.8352768421173096
16-11-1989,2.546875,2.546875,301600,2.59375,2.59375,1.8576570749282837
17-11-1989,2.59375,2.59375,249600,2.640625,2.640625,1.8912310600280762
20-11-1989,2.609375,2.65625,43200,2.65625,2.609375,1.8688490390777588
21-11-1989,2.59375,2.59375,108800,2.671875,2.671875,1.9136111736297607
22-11-1989,2.6875,2.6875,255200,2.75,2.75,1.9695656299591064
24-11-1989,2.78125,2.78125,572000,2.953125,2.921875,2.092663526535034
27-11-1989,2.859375,2.90625,253600,2.9375,2.875,2.059091567993164
28-11-1989,2.828125,2.875,560000,2.875,2.828125,2.0255181789398193
29-11-1989,2.78125,2.8125,60800,2.8125,2.796875,2.0031371116638184
30-11-1989,2.8125,2.8125,712800,2.90625,2.890625,2.070282220840454
01-12-1989,2.890625,2.890625,356800,2.953125,2.90625,2.0814735889434814
04-12-1989,2.875,2.9375,172000,2.984375,2.984375,2.1374266147613525
05-12-1989,2.90625,2.953125,93600,2.984375,2.90625,2.0814735889434814
06-12-1989,2.90625,2.90625,668800,3.0,2.984375,2.1374266147613525
07-12-1989,2.921875,2.984375,215200,2.984375,2.953125,2.115044116973877
08-12-1989,2.921875,2.921875,122400,2.953125,2.953125,2.115044116973877
11-12-1989,2.9375,2.96875,306400,3.03125,3.0,2.148616313934326
12-12-1989,2.984375,3.015625,1119200,3.03125,3.015625,2.159806966781616
13-12-1989,2.984375,3.0,400000,3.15625,3.15625,2.2605245113372803
14-12-1989,3.109375,3.125,391200,3.140625,3.125,2.238142728805542
15-12-1989,3.09375,3.140625,155200,3.140625,3.109375,2.226952075958252
18-12-1989,3.03125,3.078125,224000,3.125,3.03125,2.1709983348846436
19-12-1989,3.03125,3.03125,215200,3.0625,3.0625,2.1933798789978027
20-12-1989,3.046875,3.0625,166400,3.109375,3.078125,2.204570770263672
21-12-1989,3.0625,3.109375,174400,3.125,3.109375,2.226952075958252
22-12-1989,3.109375,3.125,173600,3.125,3.125,2.238142728805542
26-12-1989,3.078125,3.109375,97600,3.109375,3.078125,2.204570770263672
27-12-1989,3.03125,3.0625,144000,3.0625,3.03125,2.1709983348846436
28-12-1989,3.03125,3.046875,11200,3.046875,3.03125,2.1709983348846436
29-12-1989,3.015625,3.03125,219200,3.15625,3.15625,2.2605245113372803
02-01-1990,3.03125,3.125,194400,3.125,3.046875,2.182187795639038
03-01-1990,3.03125,3.0625,361600,3.0625,3.03125,2.1709983348846436
04-01-1990,2.953125,3.03125,166400,3.0625,2.953125,2.115044116973877
05-01-1990,2.859375,2.9375,100800,2.9375,2.90625,2.0814735889434814
08-01-1990,2.84375,2.875,880800,2.890625,2.859375,2.047900915145874
09-01-1990,2.8125,2.828125,282400,2.84375,2.8125,2.014328718185425
10-01-1990,2.6875,2.765625,784000,2.765625,2.703125,1.9403048753738403
11-01-1990,2.703125,2.71875,347200,2.765625,2.75,1.973951816558838
12-01-1990,2.6875,2.71875,159200,2.734375,2.71875,1.951520562171936
15-01-1990,2.71875,2.734375,25600,2.734375,2.71875,1.951520562171936
16-01-1990,2.625,2.6875,172800,2.703125,2.703125,1.9403048753738403
17-01-1990,2.71875,2.71875,216000,2.8125,2.71875,1.951520562171936
18-01-1990,2.6875,2.6875,157600,2.71875,2.703125,1.9403048753738403
19-01-1990,2.734375,2.734375,8800,2.75,2.75,1.973951816558838
22-01-1990,2.71875,2.734375,56800,2.75,2.734375,1.9627364873886108
23-01-1990,2.734375,2.765625,101600,2.765625,2.75,1.973951816558838
24-01-1990,2.6875,2.734375,26400,2.734375,2.6875,1.929088830947876
25-01-1990,2.671875,2.6875,249600,2.71875,2.71875,1.951520562171936
26-01-1990,2.671875,2.703125,45600,2.71875,2.671875,1.9178729057312012
29-01-1990,2.625,2.6875,444000,2.6875,2.640625,1.8954421281814575
30-01-1990,2.578125,2.625,548000,2.65625,2.65625,1.9066587686538696
31-01-1990,2.6875,2.6875,757600,2.859375,2.859375,2.0524613857269287
01-02-1990,2.84375,2.875,149600,2.875,2.859375,2.0524613857269287
02-02-1990,2.875,2.875,720000,2.90625,2.875,2.0636770725250244
05-02-1990,2.875,2.90625,163200,2.90625,2.875,2.0636770725250244
06-02-1990,2.84375,2.875,99200,2.90625,2.890625,2.0748913288116455
07-02-1990,2.90625,2.90625,32800,2.9375,2.9375,2.1085398197174072
08-02-1990,2.96875,2.96875,346400,3.125,3.046875,2.187049150466919
09-02-1990,2.96875,3.078125,179200,3.125,3.0,2.15340256690979
12-02-1990,2.90625,3.0,28000,3.0,2.90625,2.0861079692840576
13-02-1990,2.9375,2.9375,26400,2.953125,2.953125,2.119755506515503
14-02-1990,2.9375,2.953125,32800,2.96875,2.9375,2.1085398197174072
15-02-1990,2.953125,2.953125,152000,2.96875,2.953125,2.119755506515503
16-02-1990,2.96875,2.96875,32000,2.96875,2.96875,2.1309709548950195
20-02-1990,2.953125,2.984375,23200,2.984375,2.953125,2.119755506515503
21-02-1990,2.90625,2.953125,553600,2.953125,2.90625,2.0861079692840576
22-02-1990,2.84375,2.90625,148000,2.90625,2.84375,2.041246175765991
23-02-1990,2.6875,2.78125,575200,2.78125,2.71875,1.951520562171936
26-02-1990,2.734375,2.734375,477600,2.75,2.75,1.973951816558838
27-02-1990,2.765625,2.765625,357600,2.84375,2.84375,2.041246175765991
28-02-1990,2.796875,2.8125,145600,2.828125,2.796875,2.007599353790283
01-03-1990,2.75,2.796875,225600,2.796875,2.75,1.973951816558838
02-03-1990,2.6875,2.75,931200,2.78125,2.703125,1.9403048753738403
05-03-1990,2.65625,2.671875,146400,2.703125,2.671875,1.9178729057312012
06-03-1990,2.625,2.671875,258400,2.734375,2.734375,1.9627364873886108
07-03-1990,2.703125,2.734375,174400,2.75,2.75,1.973951816558838
08-03-1990,2.734375,2.75,146400,2.796875,2.78125,1.9963833093643188
09-03-1990,2.734375,2.75,194400,2.78125,2.734375,1.9627364873886108
12-03-1990,2.625,2.703125,1072800,2.71875,2.6875,1.929088830947876
13-03-1990,2.671875,2.671875,662400,2.6875,2.6875,1.929088830947876
14-03-1990,2.671875,2.671875,298400,2.765625,2.765625,1.9851670265197754
15-03-1990,2.71875,2.78125,192000,2.796875,2.71875,1.951520562171936
16-03-1990,2.734375,2.75,271200,2.78125,2.78125,1.9963833093643188
19-03-1990,2.75,2.75,476000,2.765625,2.765625,1.9851670265197754
20-03-1990,2.75,2.75,898400,2.90625,2.796875,2.007599353790283
21-03-1990,2.796875,2.796875,102400,2.8125,2.796875,2.007599353790283
22-03-1990,2.75,2.75,177600,2.765625,2.765625,1.9851670265197754
23-03-1990,2.796875,2.796875,320000,2.796875,2.796875,2.007599353790283
26-03-1990,2.75,2.78125,37600,2.78125,2.75,1.973951816558838
27-03-1990,2.734375,2.734375,24000,2.75,2.75,1.973951816558838
28-03-1990,2.84375,2.84375,706400,2.9375,2.921875,2.0973243713378906
29-03-1990,2.890625,2.921875,361600,2.9375,2.90625,2.0861079692840576
30-03-1990,2.921875,2.921875,161600,2.921875,2.921875,2.0973243713378906
02-04-1990,2.84375,2.921875,184800,2.921875,2.875,2.0636770725250244
03-04-1990,2.875,2.875,358400,3.03125,2.984375,2.142185926437378
04-04-1990,2.90625,2.984375,364800,2.984375,2.90625,2.0861079692840576
05-04-1990,2.90625,2.9375,373600,2.953125,2.90625,2.0861079692840576
06-04-1990,2.78125,2.921875,810400,2.921875,2.78125,1.9963833093643188
09-04-1990,2.734375,2.734375,336800,2.765625,2.734375,1.9671565294265747
10-04-1990,2.71875,2.75,426400,2.8125,2.765625,1.9896382093429565
11-04-1990,2.71875,2.78125,234400,2.8125,2.734375,1.9671565294265747
12-04-1990,2.59375,2.71875,456000,2.734375,2.625,1.888471245765686
16-04-1990,2.640625,2.640625,273600,2.734375,2.703125,1.9446756839752197
17-04-1990,2.703125,2.71875,16800,2.71875,2.71875,1.9559167623519897
18-04-1990,2.6875,2.6875,333600,2.75,2.71875,1.9559167623519897
19-04-1990,2.671875,2.71875,207200,2.71875,2.6875,1.9334338903427124
20-04-1990,2.65625,2.671875,168800,2.6875,2.671875,1.9221924543380737
23-04-1990,2.625,2.65625,173600,2.65625,2.625,1.888471245765686
24-04-1990,2.625,2.625,458400,2.671875,2.625,1.888471245765686
25-04-1990,2.640625,2.65625,104000,2.671875,2.65625,1.9109522104263306
26-04-1990,2.625,2.625,461600,2.6875,2.6875,1.9334338903427124
27-04-1990,2.6875,2.6875,133600,2.703125,2.703125,1.9446756839752197
30-04-1990,2.6875,2.703125,68800,2.71875,2.71875,1.9559167623519897
01-05-1990,2.6875,2.71875,732800,2.828125,2.8125,2.023361921310425
02-05-1990,2.765625,2.78125,575200,2.828125,2.8125,2.023361921310425
03-05-1990,2.828125,2.84375,105600,2.859375,2.828125,2.034602642059326
04-05-1990,2.78125,2.84375,279200,2.84375,2.78125,2.0008795261383057
07-05-1990,2.78125,2.78125,32800,2.84375,2.84375,2.0458436012268066
08-05-1990,2.828125,2.84375,48800,2.84375,2.828125,2.034602642059326
09-05-1990,2.796875,2.84375,1232800,2.859375,2.796875,2.012120246887207
10-05-1990,2.796875,2.8125,428000,2.84375,2.796875,2.012120246887207
11-05-1990,2.828125,2.828125,172000,2.875,2.875,2.0683252811431885
14-05-1990,2.75,2.890625,2418400,2.890625,2.75,1.9783974885940552
15-05-1990,2.75,2.78125,5804800,2.828125,2.8125,2.023361921310425
16-05-1990,2.8125,2.8125,367200,2.96875,2.90625,2.090805768966675
17-05-1990,2.921875,2.921875,196000,2.953125,2.953125,2.1245291233062744
18-05-1990,2.96875,2.96875,181600,3.0,3.0,2.1582531929016113
21-05-1990,2.921875,2.96875,74400,2.96875,2.953125,2.1245291233062744
22-05-1990,2.96875,2.984375,40800,2.984375,2.96875,2.135770320892334
23-05-1990,2.90625,2.96875,30400,2.96875,2.90625,2.090805768966675
24-05-1990,2.75,2.921875,483200,2.921875,2.8125,2.023361921310425
25-05-1990,2.75,2.8125,817600,2.875,2.875,2.0683252811431885
29-05-1990,2.890625,2.890625,60800,2.90625,2.90625,2.090805768966675
30-05-1990,2.921875,2.9375,129600,2.984375,2.96875,2.135770320892334
31-05-1990,2.90625,2.9375,143200,2.984375,2.96875,2.135770320892334
01-06-1990,2.953125,2.96875,47200,2.984375,2.96875,2.135770320892334
04-06-1990,2.90625,2.9375,68000,2.984375,2.984375,2.1470117568969727
05-06-1990,2.796875,2.984375,1125600,3.0,2.890625,2.0795655250549316
06-06-1990,2.875,2.890625,44000,2.90625,2.875,2.0683252811431885
07-06-1990,2.859375,2.890625,212800,2.890625,2.859375,2.057084321975708
08-06-1990,2.8125,2.875,405600,2.875,2.84375,2.0458436012268066
11-06-1990,2.84375,2.859375,48800,2.890625,2.875,2.0683252811431885
12-06-1990,2.859375,2.90625,196000,3.0,2.984375,2.1470117568969727
13-06-1990,2.96875,2.96875,208000,3.09375,2.96875,2.135770320892334
14-06-1990,2.9375,2.953125,20800,2.984375,2.984375,2.1470117568969727
15-06-1990,2.921875,2.984375,158400,2.984375,2.96875,2.135770320892334
18-06-1990,2.96875,2.96875,1600,2.96875,2.96875,2.135770320892334
19-06-1990,2.875,2.9375,174400,2.9375,2.921875,2.102047920227051
20-06-1990,2.90625,2.953125,127200,2.953125,2.9375,2.113288402557373
21-06-1990,2.921875,2.921875,6400,2.9375,2.9375,2.113288402557373
22-06-1990,2.921875,2.9375,356800,2.953125,2.953125,2.1245291233062744
25-06-1990,2.90625,2.921875,24800,2.9375,2.921875,2.102047920227051
26-06-1990,2.859375,2.90625,207200,2.921875,2.921875,2.102047920227051
27-06-1990,2.921875,2.921875,13600,2.9375,2.921875,2.102047920227051
28-06-1990,2.9375,2.9375,157600,2.96875,2.96875,2.135770320892334
29-06-1990,2.953125,2.984375,327200,2.984375,2.96875,2.135770320892334
02-07-1990,2.875,2.953125,322400,2.953125,2.90625,2.090805768966675
03-07-1990,2.875,2.9375,308800,2.9375,2.875,2.0683252811431885
05-07-1990,2.8125,2.84375,596800,2.84375,2.828125,2.034602642059326
06-07-1990,2.78125,2.78125,82400,2.796875,2.796875,2.012120246887207
09-07-1990,2.75,2.796875,724800,2.8125,2.78125,2.0008795261383057
10-07-1990,2.765625,2.78125,1073600,2.78125,2.78125,2.0053863525390625
11-07-1990,2.78125,2.78125,776000,2.8125,2.796875,2.0166523456573486
12-07-1990,2.796875,2.796875,1208800,2.90625,2.875,2.072984457015991
13-07-1990,2.90625,2.90625,568000,3.0,2.96875,2.140580415725708
16-07-1990,2.96875,2.984375,680800,3.0,2.96875,2.140580415725708
17-07-1990,2.921875,2.96875,102400,2.96875,2.921875,2.1067821979522705
18-07-1990,2.84375,2.921875,348000,2.921875,2.84375,2.0504515171051025
19-07-1990,2.796875,2.8125,465600,2.875,2.875,2.072984457015991
20-07-1990,2.890625,2.890625,51200,2.90625,2.890625,2.0842485427856445
23-07-1990,2.859375,2.875,349600,2.9375,2.9375,2.1180484294891357
24-07-1990,2.90625,2.90625,353600,3.015625,2.984375,2.1518478393554688
25-07-1990,3.0,3.015625,52000,3.03125,3.03125,2.185645818710327
26-07-1990,3.03125,3.0625,80000,3.0625,3.0625,2.208177328109741
27-07-1990,2.984375,3.03125,75200,3.0625,2.984375,2.1518478393554688
30-07-1990,2.984375,3.0,160800,3.0,3.0,2.163114070892334
31-07-1990,2.953125,2.953125,175200,3.015625,3.0,2.163114070892334
01-08-1990,3.0,3.03125,134400,3.0625,3.015625,2.1743788719177246
02-08-1990,3.03125,3.125,1056800,3.171875,3.171875,2.2870426177978516
03-08-1990,3.109375,3.15625,1272000,3.265625,3.203125,2.309574842453003
06-08-1990,3.125,3.25,247200,3.265625,3.125,2.2532432079315186
07-08-1990,3.125,3.125,148800,3.140625,3.140625,2.2645084857940674
08-08-1990,3.09375,3.125,170400,3.140625,3.09375,2.230710029602051
09-08-1990,3.0625,3.09375,296000,3.09375,3.09375,2.230710029602051
10-08-1990,3.09375,3.09375,299200,3.109375,3.09375,2.230710029602051
13-08-1990,3.078125,3.109375,56800,3.125,3.078125,2.2194435596466064
14-08-1990,3.0625,3.109375,49600,3.109375,3.0625,2.208177328109741
15-08-1990,3.0625,3.0625,196000,3.15625,3.125,2.2532432079315186
16-08-1990,3.078125,3.109375,140000,3.125,3.109375,2.241976737976074
17-08-1990,3.125,3.140625,201600,3.1875,3.140625,2.2645084857940674
20-08-1990,3.046875,3.15625,239200,3.15625,3.046875,2.196911096572876
21-08-1990,3.0625,3.0625,452000,3.09375,3.078125,2.2194435596466064
22-08-1990,3.015625,3.0625,333600,3.09375,3.015625,2.1743788719177246
23-08-1990,2.9375,3.0,364000,3.0,2.96875,2.140580415725708
24-08-1990,2.921875,2.921875,326400,3.0,3.0,2.163114070892334
27-08-1990,2.953125,3.0,88000,3.0,2.953125,2.129314422607422
28-08-1990,2.953125,2.953125,8000,2.984375,2.984375,2.1518478393554688
29-08-1990,2.9375,3.015625,140800,3.015625,2.9375,2.1180484294891357
30-08-1990,2.90625,2.953125,65600,2.984375,2.984375,2.1518478393554688
31-08-1990,2.890625,2.953125,256800,2.984375,2.921875,2.1067821979522705
04-09-1990,2.9375,2.9375,20000,2.953125,2.953125,2.129314422607422
05-09-1990,2.953125,2.953125,223200,3.1875,3.171875,2.2870426177978516
06-09-1990,3.1875,3.203125,317600,3.296875,3.296875,2.377171754837036
07-09-1990,3.296875,3.296875,160800,3.359375,3.359375,2.4222347736358643
10-09-1990,3.328125,3.328125,1408800,3.390625,3.359375,2.4222347736358643
11-09-1990,3.1875,3.375,963200,3.375,3.3125,2.388437032699585
12-09-1990,3.265625,3.34375,336000,3.34375,3.3125,2.388437032699585
13-09-1990,3.25,3.3125,405600,3.328125,3.25,2.343371868133545
14-09-1990,3.25,3.25,209600,3.390625,3.390625,2.444768190383911
17-09-1990,3.375,3.390625,1116000,3.46875,3.46875,2.501099109649658
18-09-1990,3.46875,3.46875,776800,3.765625,3.671875,2.6475610733032227
19-09-1990,3.65625,3.6875,1624800,3.6875,3.65625,2.63629412651062
20-09-1990,3.53125,3.65625,432000,3.65625,3.53125,2.5461645126342773
21-09-1990,3.46875,3.484375,521600,3.5625,3.5625,2.568697690963745
24-09-1990,3.484375,3.5625,112800,3.5625,3.515625,2.5348989963531494
25-09-1990,3.5,3.5,221600,3.515625,3.515625,2.5348989963531494
26-09-1990,3.453125,3.515625,55200,3.515625,3.46875,2.501099109649658
27-09-1990,3.375,3.4375,72800,3.453125,3.375,2.433501958847046
28-09-1990,3.28125,3.375,163200,3.375,3.34375,2.410970687866211
01-10-1990,3.296875,3.328125,455200,3.390625,3.34375,2.410970687866211
02-10-1990,3.328125,3.359375,72000,3.359375,3.359375,2.4222347736358643
03-10-1990,3.3125,3.34375,26400,3.34375,3.34375,2.410970687866211
04-10-1990,3.25,3.34375,313600,3.34375,3.25,2.343371868133545
05-10-1990,3.1875,3.234375,550400,3.296875,3.1875,2.2983078956604004
08-10-1990,3.1875,3.203125,411200,3.234375,3.1875,2.2983078956604004
09-10-1990,3.203125,3.203125,298400,3.375,3.34375,2.415708303451538
10-10-1990,3.21875,3.34375,200000,3.34375,3.234375,2.3366892337799072
11-10-1990,3.203125,3.25,34400,3.25,3.21875,2.3254003524780273
12-10-1990,3.171875,3.1875,89600,3.203125,3.203125,2.314112424850464
15-10-1990,3.15625,3.203125,36800,3.203125,3.15625,2.2802464962005615
16-10-1990,3.109375,3.140625,153600,3.15625,3.109375,2.2463812828063965
17-10-1990,3.09375,3.109375,11200,3.125,3.125,2.2576701641082764
18-10-1990,3.109375,3.109375,113600,3.125,3.109375,2.2463812828063965
19-10-1990,3.078125,3.109375,36800,3.109375,3.09375,2.2350921630859375
22-10-1990,3.0625,3.109375,68000,3.109375,3.0625,2.212515115737915
23-10-1990,3.0625,3.0625,17600,3.109375,3.109375,2.2463812828063965
24-10-1990,3.125,3.125,120000,3.15625,3.15625,2.2802464962005615
25-10-1990,3.1875,3.1875,112800,3.328125,3.328125,2.4044175148010254
26-10-1990,3.3125,3.3125,22400,3.359375,3.359375,2.4269940853118896
29-10-1990,3.359375,3.375,16000,3.375,3.359375,2.4269940853118896
30-10-1990,3.28125,3.34375,29600,3.359375,3.296875,2.3818421363830566
31-10-1990,3.3125,3.3125,366400,3.453125,3.375,2.438283681869507
01-11-1990,3.359375,3.375,163200,3.375,3.375,2.438283681869507
02-11-1990,3.375,3.375,469600,3.53125,3.5,2.5285916328430176
05-11-1990,3.46875,3.53125,426400,3.546875,3.46875,2.5060129165649414
06-11-1990,3.421875,3.484375,8800,3.484375,3.421875,2.4721481800079346
07-11-1990,3.375,3.421875,148000,3.421875,3.375,2.438283681869507
08-11-1990,3.34375,3.34375,37600,3.390625,3.390625,2.4495718479156494
09-11-1990,3.375,3.375,397600,3.4375,3.421875,2.4721481800079346
12-11-1990,3.328125,3.390625,76800,3.390625,3.328125,2.4044175148010254
13-11-1990,3.109375,3.15625,208000,3.15625,3.109375,2.2463812828063965
14-11-1990,3.109375,3.125,75200,3.1875,3.1875,2.302823543548584
15-11-1990,3.125,3.15625,45600,3.171875,3.140625,2.2689578533172607
16-11-1990,3.09375,3.140625,300800,3.15625,3.15625,2.2802464962005615
19-11-1990,2.984375,3.15625,456800,3.15625,2.984375,2.1560745239257812
20-11-1990,2.84375,2.96875,329600,2.96875,2.921875,2.11092209815979
21-11-1990,2.890625,2.90625,32800,2.96875,2.96875,2.144786834716797
23-11-1990,2.96875,2.96875,18400,2.984375,2.96875,2.144786834716797
26-11-1990,2.96875,2.984375,40000,3.0,2.96875,2.144786834716797
27-11-1990,2.9375,2.984375,39200,2.984375,2.953125,2.133498191833496
28-11-1990,2.90625,2.953125,145600,2.953125,2.921875,2.11092209815979
29-11-1990,2.90625,2.90625,36800,2.90625,2.90625,2.0996320247650146
30-11-1990,2.765625,2.875,236000,2.890625,2.8125,2.031903028488159
03-12-1990,2.609375,2.796875,366400,2.796875,2.75,1.9867497682571411
04-12-1990,2.671875,2.734375,230400,2.734375,2.71875,1.9641730785369873
05-12-1990,2.71875,2.71875,432000,2.796875,2.78125,2.009326457977295
06-12-1990,2.734375,2.78125,248800,2.8125,2.75,1.9867497682571411
07-12-1990,2.625,2.71875,257600,2.71875,2.71875,1.9641730785369873
10-12-1990,2.703125,2.734375,179200,2.734375,2.71875,1.9641730785369873
11-12-1990,2.703125,2.703125,981600,2.78125,2.734375,1.9754606485366821
12-12-1990,2.734375,2.75,493600,2.78125,2.78125,2.009326457977295
13-12-1990,2.71875,2.75,908000,2.75,2.71875,1.9641730785369873
14-12-1990,2.65625,2.71875,207200,2.78125,2.78125,2.009326457977295
17-12-1990,2.734375,2.796875,89600,2.828125,2.734375,1.9754606485366821
18-12-1990,2.703125,2.765625,153600,2.796875,2.703125,1.952883243560791
19-12-1990,2.640625,2.703125,277600,2.734375,2.640625,1.907731294631958
20-12-1990,2.546875,2.609375,1007200,2.609375,2.5625,1.8512885570526123
21-12-1990,2.484375,2.484375,980000,2.515625,2.5,1.8061355352401733
24-12-1990,2.5,2.5,222400,2.546875,2.546875,1.8400002717971802
26-12-1990,2.5625,2.5625,93600,2.75,2.75,1.9867497682571411
27-12-1990,2.71875,2.75,51200,2.75,2.734375,1.9754606485366821
28-12-1990,2.65625,2.71875,49600,2.71875,2.65625,1.919019341468811
31-12-1990,2.53125,2.65625,364800,2.65625,2.65625,1.919019341468811
02-01-1991,2.59375,2.625,36000,2.625,2.59375,1.8738652467727661
03-01-1991,2.484375,2.59375,413600,2.59375,2.484375,1.7948474884033203
04-01-1991,2.328125,2.4375,216800,2.4375,2.328125,1.681963324546814
07-01-1991,2.21875,2.296875,599200,2.3125,2.265625,1.6368095874786377
08-01-1991,2.15625,2.25,679200,2.265625,2.15625,1.557791829109192
09-01-1991,2.140625,2.171875,572000,2.1875,2.140625,1.5509997606277466
10-01-1991,2.09375,2.125,296000,2.140625,2.140625,1.5509997606277466
11-01-1991,2.109375,2.109375,278400,2.21875,2.21875,1.6076061725616455
14-01-1991,2.21875,2.234375,172800,2.265625,2.25,1.6302474737167358
15-01-1991,2.171875,2.25,92800,2.25,2.234375,1.6189265251159668
16-01-1991,2.171875,2.234375,50400,2.25,2.203125,1.5962834358215332
17-01-1991,2.03125,2.1875,1341600,2.25,2.203125,1.5962834358215332
18-01-1991,2.15625,2.203125,275200,2.21875,2.1875,1.5849634408950806
21-01-1991,2.0625,2.15625,550400,2.15625,2.125,1.5396788120269775
22-01-1991,2.125,2.15625,174400,2.171875,2.125,1.5396788120269775
23-01-1991,2.140625,2.140625,837600,2.265625,2.25,1.6302474737167358
24-01-1991,2.265625,2.3125,495200,2.34375,2.28125,1.6528897285461426
25-01-1991,2.21875,2.3125,817600,2.375,2.25,1.6302474737167358
28-01-1991,2.203125,2.28125,679200,2.296875,2.234375,1.6189265251159668
29-01-1991,2.25,2.25,99200,2.265625,2.25,1.6302474737167358
30-01-1991,2.203125,2.21875,132000,2.25,2.234375,1.6189265251159668
31-01-1991,2.15625,2.21875,384800,2.21875,2.171875,1.5736418962478638
01-02-1991,2.15625,2.15625,869600,2.21875,2.21875,1.6076061725616455
04-02-1991,2.203125,2.21875,961600,2.28125,2.25,1.6302474737167358
05-02-1991,2.25,2.25,1217600,2.375,2.28125,1.6528897285461426
06-02-1991,2.28125,2.28125,1186400,2.5,2.484375,1.800065517425537
07-02-1991,2.546875,2.546875,1224000,2.78125,2.6875,1.9472401142120361
08-02-1991,2.640625,2.65625,94400,2.6875,2.671875,1.935919165611267
11-02-1991,2.640625,2.6875,307200,2.75,2.703125,1.9585609436035156
12-02-1991,2.59375,2.734375,216000,2.734375,2.59375,1.8793132305145264
13-02-1991,2.625,2.625,45600,2.703125,2.703125,1.9585609436035156
14-02-1991,2.515625,2.6875,148800,2.6875,2.515625,1.8227072954177856
15-02-1991,2.484375,2.484375,356800,2.609375,2.609375,1.890634298324585
19-02-1991,2.515625,2.59375,160800,2.59375,2.546875,1.8453501462936401
20-02-1991,2.515625,2.546875,219200,2.625,2.625,1.901956558227539
21-02-1991,2.59375,2.609375,188000,2.625,2.59375,1.8793132305145264
22-02-1991,2.453125,2.59375,408000,2.59375,2.453125,1.7774229049682617
25-02-1991,2.328125,2.453125,88800,2.453125,2.328125,1.6868534088134766
26-02-1991,2.265625,2.3125,776800,2.328125,2.3125,1.6755317449569702
27-02-1991,2.34375,2.34375,1544000,2.453125,2.4375,1.7661012411117554
28-02-1991,2.453125,2.46875,578400,2.59375,2.59375,1.8793132305145264
01-03-1991,2.53125,2.59375,692800,2.59375,2.546875,1.8453501462936401
04-03-1991,2.546875,2.546875,555200,2.609375,2.59375,1.8793132305145264
05-03-1991,2.5625,2.5625,418400,2.578125,2.578125,1.8679920434951782
06-03-1991,2.546875,2.546875,180800,2.59375,2.5625,1.8566704988479614
07-03-1991,2.5625,2.5625,280800,2.625,2.625,1.901956558227539
08-03-1991,2.59375,2.625,442400,2.78125,2.671875,1.935919165611267
11-03-1991,2.6875,2.6875,116000,2.75,2.71875,1.9698823690414429
12-03-1991,2.6875,2.75,163200,2.75,2.6875,1.9472401142120361
13-03-1991,2.59375,2.671875,147200,2.671875,2.59375,1.8793132305145264
14-03-1991,2.546875,2.578125,184000,2.59375,2.5625,1.8566704988479614
15-03-1991,2.546875,2.546875,289600,2.65625,2.625,1.901956558227539
18-03-1991,2.625,2.640625,136000,2.6875,2.6875,1.9472401142120361
19-03-1991,2.609375,2.65625,172000,2.65625,2.625,1.901956558227539
20-03-1991,2.625,2.625,71200,2.65625,2.65625,1.9245980978012085
21-03-1991,2.65625,2.671875,327200,2.734375,2.734375,1.9812053442001343
22-03-1991,2.703125,2.734375,93600,2.734375,2.703125,1.9585609436035156
25-03-1991,2.640625,2.71875,115200,2.71875,2.703125,1.9585609436035156
26-03-1991,2.625,2.671875,447200,2.6875,2.65625,1.9245980978012085
27-03-1991,2.578125,2.640625,86400,2.640625,2.578125,1.8679920434951782
28-03-1991,2.515625,2.578125,70400,2.59375,2.515625,1.8227072954177856
01-04-1991,2.453125,2.53125,128000,2.53125,2.453125,1.7774229049682617
02-04-1991,2.359375,2.46875,367200,2.46875,2.375,1.7208172082901
03-04-1991,2.3125,2.359375,1358400,2.4375,2.3125,1.6755317449569702
04-04-1991,2.34375,2.34375,1049600,2.40625,2.40625,1.7434594631195068
05-04-1991,2.421875,2.421875,73600,2.484375,2.484375,1.800065517425537
08-04-1991,2.4375,2.46875,24000,2.46875,2.4375,1.7661012411117554
09-04-1991,2.375,2.40625,198400,2.4375,2.4375,1.7661012411117554
10-04-1991,2.34375,2.421875,198400,2.421875,2.390625,1.736591100692749
11-04-1991,2.359375,2.40625,255200,2.4375,2.40625,1.747941255569458
12-04-1991,2.390625,2.40625,398400,2.46875,2.46875,1.7933423519134521
15-04-1991,2.5,2.5,258400,2.5625,2.546875,1.8500932455062866
16-04-1991,2.53125,2.53125,468000,2.640625,2.625,1.906845211982727
17-04-1991,2.578125,2.640625,662400,2.640625,2.578125,1.8727941513061523
18-04-1991,2.609375,2.609375,68800,2.640625,2.625,1.906845211982727
19-04-1991,2.5625,2.609375,20000,2.625,2.578125,1.8727941513061523
22-04-1991,2.484375,2.578125,263200,2.578125,2.5,1.8160429000854492
23-04-1991,2.453125,2.484375,69600,2.5,2.5,1.8160429000854492
24-04-1991,2.46875,2.5,44800,2.5,2.5,1.8160429000854492
25-04-1991,2.46875,2.484375,70400,2.484375,2.46875,1.7933423519134521
26-04-1991,2.421875,2.453125,24000,2.453125,2.4375,1.7706416845321655
29-04-1991,2.34375,2.421875,373600,2.421875,2.34375,1.7025394439697266
30-04-1991,2.328125,2.375,1024800,2.375,2.375,1.7252410650253296
01-05-1991,2.34375,2.375,403200,2.421875,2.421875,1.759291648864746
02-05-1991,2.375,2.40625,714400,2.40625,2.375,1.7252410650253296
03-05-1991,2.359375,2.40625,464000,2.4375,2.390625,1.736591100692749
06-05-1991,2.359375,2.375,11200,2.375,2.359375,1.713889718055725
07-05-1991,2.28125,2.375,360800,2.375,2.34375,1.7025394439697266
08-05-1991,2.328125,2.34375,567200,2.453125,2.4375,1.7706416845321655
09-05-1991,2.40625,2.453125,150400,2.46875,2.46875,1.7933423519134521
10-05-1991,2.375,2.453125,88800,2.453125,2.375,1.7252410650253296
13-05-1991,2.28125,2.359375,872000,2.359375,2.28125,1.657138466835022
14-05-1991,2.28125,2.28125,366400,2.375,2.3125,1.6798396110534668
15-05-1991,2.3125,2.3125,276000,2.40625,2.390625,1.736591100692749
16-05-1991,2.421875,2.453125,404000,2.46875,2.421875,1.759291648864746
17-05-1991,2.390625,2.421875,25600,2.421875,2.40625,1.747941255569458
20-05-1991,2.390625,2.40625,121600,2.4375,2.40625,1.747941255569458
21-05-1991,2.34375,2.4375,480800,2.4375,2.375,1.7252410650253296
22-05-1991,2.375,2.375,31200,2.390625,2.390625,1.736591100692749
23-05-1991,2.375,2.40625,240800,2.421875,2.40625,1.747941255569458
24-05-1991,2.375,2.421875,160800,2.453125,2.390625,1.736591100692749
28-05-1991,2.375,2.375,60000,2.453125,2.4375,1.7706416845321655
29-05-1991,2.421875,2.4375,334400,2.4375,2.4375,1.7706416845321655
30-05-1991,2.421875,2.4375,521600,2.5,2.5,1.8160429000854492
31-05-1991,2.53125,2.53125,1612000,2.625,2.625,1.906845211982727
03-06-1991,2.609375,2.65625,256000,2.6875,2.625,1.906845211982727
04-06-1991,2.625,2.65625,1272800,2.671875,2.625,1.906845211982727
05-06-1991,2.578125,2.625,141600,2.625,2.578125,1.8727941513061523
06-06-1991,2.5625,2.5625,201600,2.609375,2.59375,1.8841447830200195
07-06-1991,2.53125,2.59375,473600,2.59375,2.53125,1.8387441635131836
10-06-1991,2.53125,2.546875,168000,2.5625,2.53125,1.8387441635131836
11-06-1991,2.4375,2.53125,155200,2.53125,2.5,1.8160429000854492
12-06-1991,2.484375,2.5,51200,2.5,2.5,1.8160429000854492
13-06-1991,2.484375,2.5,1600,2.5,2.484375,1.8046919107437134
14-06-1991,2.46875,2.46875,83200,2.46875,2.46875,1.7933423519134521
17-06-1991,2.453125,2.46875,21600,2.46875,2.453125,1.7819929122924805
18-06-1991,2.4375,2.46875,341600,2.46875,2.46875,1.7933423519134521
19-06-1991,2.46875,2.46875,170400,2.5,2.5,1.8160429000854492
20-06-1991,2.375,2.4375,30400,2.4375,2.375,1.7252410650253296
21-06-1991,2.3125,2.34375,251200,2.375,2.34375,1.7025394439697266
24-06-1991,2.3125,2.359375,124800,2.375,2.375,1.7252410650253296
25-06-1991,2.359375,2.375,39200,2.375,2.359375,1.713889718055725
26-06-1991,2.296875,2.328125,188000,2.359375,2.3125,1.6798396110534668
27-06-1991,2.28125,2.3125,260800,2.34375,2.3125,1.6798396110534668
28-06-1991,2.25,2.3125,418400,2.3125,2.25,1.6344385147094727
01-07-1991,2.203125,2.25,188800,2.25,2.203125,1.6003870964050293
02-07-1991,2.21875,2.21875,127200,2.25,2.234375,1.6230885982513428
03-07-1991,2.203125,2.203125,267200,2.28125,2.25,1.6344385147094727
05-07-1991,2.25,2.25,3200,2.25,2.25,1.6344385147094727
08-07-1991,2.25,2.25,192800,2.296875,2.296875,1.6684893369674683
09-07-1991,2.234375,2.28125,359200,2.3125,2.265625,1.6502794027328491
10-07-1991,2.234375,2.25,56000,2.25,2.234375,1.6275171041488647
11-07-1991,2.25,2.25,152800,2.328125,2.3125,1.6844227313995361
12-07-1991,2.28125,2.34375,1025600,2.359375,2.296875,1.6730414628982544
15-07-1991,2.328125,2.328125,791200,2.375,2.375,1.7299479246139526
16-07-1991,2.34375,2.359375,1204800,2.421875,2.421875,1.7640918493270874
17-07-1991,2.4375,2.453125,1052000,2.59375,2.59375,1.8892854452133179
18-07-1991,2.625,2.625,304800,2.671875,2.671875,1.9461910724639893
19-07-1991,2.609375,2.671875,73600,2.671875,2.625,1.9120475053787231
22-07-1991,2.5625,2.625,72000,2.625,2.59375,1.8892854452133179
23-07-1991,2.578125,2.609375,124000,2.625,2.578125,1.877903699874878
24-07-1991,2.578125,2.578125,39200,2.59375,2.578125,1.877903699874878
25-07-1991,2.5625,2.5625,232800,2.578125,2.5625,1.8665218353271484
26-07-1991,2.5625,2.5625,226400,2.59375,2.59375,1.8892854452133179
29-07-1991,2.59375,2.609375,6400,2.609375,2.609375,1.9006671905517578
30-07-1991,2.59375,2.59375,582400,2.65625,2.625,1.9120475053787231
31-07-1991,2.53125,2.5625,698400,2.578125,2.53125,1.8437613248825073
01-08-1991,2.53125,2.53125,248800,2.578125,2.5625,1.8665218353271484
02-08-1991,2.546875,2.546875,71200,2.546875,2.546875,1.855141043663025
05-08-1991,2.546875,2.5625,96800,2.578125,2.5625,1.8665218353271484
06-08-1991,2.5625,2.5625,457600,2.625,2.59375,1.8892854452133179
07-08-1991,2.59375,2.59375,733600,2.625,2.625,1.9120475053787231
08-08-1991,2.625,2.640625,413600,2.6875,2.640625,1.9234297275543213
09-08-1991,2.625,2.625,111200,2.65625,2.65625,1.934810996055603
12-08-1991,2.640625,2.6875,223200,2.703125,2.65625,1.934810996055603
13-08-1991,2.640625,2.640625,118400,2.6875,2.6875,1.9575718641281128
14-08-1991,2.671875,2.671875,372000,2.75,2.75,2.00309681892395
15-08-1991,2.71875,2.75,369600,2.75,2.75,2.00309681892395
16-08-1991,2.703125,2.734375,490400,2.734375,2.703125,1.968954086303711
19-08-1991,2.609375,2.671875,91200,2.671875,2.609375,1.9006671905517578
20-08-1991,2.609375,2.609375,22400,2.625,2.625,1.9120475053787231
21-08-1991,2.609375,2.625,78400,2.625,2.625,1.9120475053787231
22-08-1991,2.5625,2.640625,292800,2.640625,2.59375,1.8892854452133179
23-08-1991,2.59375,2.59375,1125600,2.75,2.75,2.00309681892395
26-08-1991,2.734375,2.75,183200,2.78125,2.75,2.00309681892395
27-08-1991,2.75,2.75,362400,2.84375,2.8125,2.04862380027771
28-08-1991,2.828125,2.84375,203200,2.953125,2.9375,2.13967227935791
29-08-1991,2.921875,2.921875,416800,3.0,2.953125,2.151054859161377
30-08-1991,2.90625,2.96875,236800,2.96875,2.921875,2.128290891647339
03-09-1991,2.78125,2.890625,230400,2.890625,2.78125,2.0258612632751465
04-09-1991,2.75,2.765625,175200,2.8125,2.765625,2.0144779682159424
05-09-1991,2.796875,2.796875,309600,2.828125,2.8125,2.04862380027771
06-09-1991,2.78125,2.8125,55200,2.828125,2.828125,2.060004711151123
09-09-1991,2.8125,2.8125,8000,2.84375,2.84375,2.071385145187378
10-09-1991,2.8125,2.828125,452800,2.84375,2.84375,2.071385145187378
11-09-1991,2.8125,2.828125,145600,2.84375,2.84375,2.071385145187378
12-09-1991,2.84375,2.859375,48000,2.859375,2.84375,2.071385145187378
13-09-1991,2.828125,2.875,366400,2.875,2.84375,2.071385145187378
16-09-1991,2.828125,2.859375,433600,2.859375,2.84375,2.071385145187378
17-09-1991,2.84375,2.84375,648800,2.890625,2.890625,2.1055281162261963
18-09-1991,2.90625,2.90625,136800,2.9375,2.9375,2.13967227935791
19-09-1991,2.921875,2.953125,153600,3.03125,3.03125,2.2079594135284424
20-09-1991,3.0,3.078125,312000,3.078125,3.03125,2.2079594135284424
23-09-1991,2.96875,3.0625,113600,3.0625,2.96875,2.1624345779418945
24-09-1991,2.875,2.96875,77600,2.96875,2.875,2.0941483974456787
25-09-1991,2.875,2.890625,7200,2.890625,2.875,2.0941483974456787
26-09-1991,2.875,2.90625,296000,2.953125,2.953125,2.151054859161377
27-09-1991,2.953125,2.96875,70400,3.0,2.96875,2.1624345779418945
30-09-1991,2.953125,2.953125,229600,2.984375,2.984375,2.173816680908203
01-10-1991,2.859375,2.984375,1317600,3.0,2.859375,2.0827653408050537
02-10-1991,2.84375,2.84375,740800,2.9375,2.90625,2.116910457611084
03-10-1991,2.890625,2.90625,106400,2.90625,2.890625,2.1055281162261963
04-10-1991,2.859375,2.875,599200,2.890625,2.890625,2.1055281162261963
07-10-1991,2.859375,2.875,973600,2.9375,2.9375,2.13967227935791
08-10-1991,2.90625,2.9375,735200,2.953125,2.9375,2.1442346572875977
09-10-1991,2.90625,2.9375,43200,2.9375,2.90625,2.121422529220581
10-10-1991,2.875,2.90625,144000,2.921875,2.90625,2.121422529220581
11-10-1991,2.90625,2.921875,23200,2.921875,2.921875,2.132829427719116
14-10-1991,2.9375,2.9375,32000,2.984375,2.96875,2.167046070098877
15-10-1991,2.984375,2.984375,181600,3.015625,3.015625,2.2012622356414795
16-10-1991,3.0,3.046875,104000,3.078125,3.0,2.18985652923584
17-10-1991,2.984375,3.0,89600,3.03125,3.03125,2.21266770362854
18-10-1991,3.0,3.046875,87200,3.046875,3.0,2.18985652923584
21-10-1991,2.984375,2.984375,3200,2.984375,2.984375,2.178450345993042
22-10-1991,2.875,2.953125,495200,2.953125,2.875,2.0986132621765137
23-10-1991,2.890625,2.953125,95200,2.953125,2.890625,2.1100168228149414
24-10-1991,2.84375,2.875,35200,2.875,2.84375,2.0758018493652344
25-10-1991,2.75,2.8125,277600,2.8125,2.765625,2.0187742710113525
28-10-1991,2.75,2.75,181600,2.84375,2.84375,2.0758018493652344
29-10-1991,2.75,2.859375,404800,2.859375,2.765625,2.0187742710113525
30-10-1991,2.78125,2.78125,12800,2.796875,2.796875,2.041586399078369
31-10-1991,2.796875,2.8125,37600,2.84375,2.84375,2.0758018493652344
01-11-1991,2.84375,2.859375,62400,2.9375,2.9375,2.1442346572875977
04-11-1991,2.921875,2.921875,624800,3.078125,3.03125,2.21266770362854
05-11-1991,3.046875,3.046875,421600,3.140625,3.109375,2.269695997238159
06-11-1991,3.03125,3.140625,228000,3.140625,3.03125,2.21266770362854
07-11-1991,3.0,3.046875,206400,3.046875,3.03125,2.21266770362854
08-11-1991,3.015625,3.015625,96800,3.0625,3.0625,2.2354788780212402
11-11-1991,3.03125,3.0625,20000,3.0625,3.03125,2.21266770362854
12-11-1991,3.0,3.0,71200,3.046875,3.03125,2.21266770362854
13-11-1991,3.03125,3.03125,127200,3.140625,3.125,2.2811012268066406
14-11-1991,3.015625,3.125,102400,3.125,3.03125,2.21266770362854
15-11-1991,2.890625,3.015625,141600,3.015625,2.9375,2.1442346572875977
18-11-1991,2.875,2.9375,236800,2.9375,2.875,2.0986132621765137
19-11-1991,2.8125,2.890625,143200,2.890625,2.8125,2.052990436553955
20-11-1991,2.78125,2.796875,144000,2.796875,2.78125,2.030179738998413
21-11-1991,2.78125,2.78125,202400,2.84375,2.796875,2.041586399078369
22-11-1991,2.75,2.78125,97600,2.78125,2.75,2.00736927986145
25-11-1991,2.75,2.75,16800,2.765625,2.765625,2.0187742710113525
26-11-1991,2.609375,2.75,346400,2.75,2.625,1.916126012802124
27-11-1991,2.625,2.640625,76800,2.65625,2.625,1.916126012802124
29-11-1991,2.640625,2.640625,28800,2.65625,2.65625,1.9389363527297974
02-12-1991,2.59375,2.65625,299200,2.671875,2.59375,1.8933143615722656
03-12-1991,2.59375,2.59375,97600,2.65625,2.65625,1.9389363527297974
04-12-1991,2.625,2.65625,20800,2.65625,2.625,1.916126012802124
05-12-1991,2.625,2.625,96800,2.6875,2.640625,1.927529215812683
06-12-1991,2.640625,2.640625,858400,2.65625,2.640625,1.927529215812683
09-12-1991,2.59375,2.625,57600,2.625,2.59375,1.8933143615722656
10-12-1991,2.484375,2.5625,171200,2.5625,2.5,1.8248811960220337
11-12-1991,2.453125,2.515625,415200,2.5625,2.546875,1.859096646308899
12-12-1991,2.515625,2.515625,124000,2.53125,2.53125,1.8476921319961548
13-12-1991,2.5,2.53125,319200,2.53125,2.5,1.8248811960220337
16-12-1991,2.484375,2.5,372800,2.515625,2.515625,1.8362863063812256
17-12-1991,2.515625,2.515625,683200,2.53125,2.53125,1.8476921319961548
18-12-1991,2.546875,2.546875,112800,2.578125,2.578125,1.8819093704223633
19-12-1991,2.53125,2.5625,392800,2.5625,2.546875,1.859096646308899
20-12-1991,2.5,2.53125,164800,2.53125,2.515625,1.8362863063812256
23-12-1991,2.421875,2.5,1115200,2.5,2.421875,1.7678529024124146
24-12-1991,2.40625,2.421875,107200,2.515625,2.515625,1.8362863063812256
26-12-1991,2.5,2.5,15200,2.515625,2.5,1.8248811960220337
27-12-1991,2.46875,2.5,48000,2.5,2.46875,1.8020695447921753
30-12-1991,2.421875,2.46875,920800,2.46875,2.4375,1.7792587280273438
31-12-1991,2.421875,2.4375,116000,2.484375,2.4375,1.7792587280273438
02-01-1992,2.390625,2.421875,732000,2.421875,2.390625,1.7450426816940308
03-01-1992,2.375,2.390625,277600,2.390625,2.375,1.7336363792419434
06-01-1992,2.3125,2.390625,528000,2.390625,2.328125,1.6994203329086304
07-01-1992,2.140625,2.3125,584000,2.3125,2.140625,1.5625548362731934
08-01-1992,2.109375,2.125,692800,2.203125,2.125,1.5511482954025269
09-01-1992,2.109375,2.125,348000,2.171875,2.171875,1.585364818572998
10-01-1992,2.140625,2.15625,840800,2.234375,2.234375,1.630987286567688
13-01-1992,2.234375,2.234375,456000,2.328125,2.296875,1.6766091585159302
14-01-1992,2.21875,2.296875,281600,2.3125,2.21875,1.6195820569992065
15-01-1992,2.234375,2.234375,377600,2.296875,2.28125,1.665203332901001
16-01-1992,2.28125,2.28125,80800,2.328125,2.328125,1.6994203329086304
17-01-1992,2.359375,2.359375,47200,2.421875,2.421875,1.7678529024124146
20-01-1992,2.421875,2.421875,91200,2.53125,2.515625,1.8362863063812256
21-01-1992,2.515625,2.53125,578400,2.546875,2.515625,1.8362863063812256
22-01-1992,2.484375,2.515625,300000,2.515625,2.484375,1.8134746551513672
23-01-1992,2.453125,2.46875,313600,2.5,2.453125,1.7906640768051147
24-01-1992,2.3125,2.453125,1104800,2.453125,2.3125,1.688014030456543
27-01-1992,2.25,2.296875,292800,2.296875,2.265625,1.6537976264953613
28-01-1992,2.1875,2.265625,2736800,2.265625,2.1875,1.5967706441879272
29-01-1992,2.15625,2.203125,463200,2.25,2.203125,1.6081756353378296
30-01-1992,2.140625,2.140625,405600,2.21875,2.1875,1.5967706441879272
31-01-1992,2.1875,2.203125,714400,2.296875,2.25,1.6423932313919067
03-02-1992,2.21875,2.265625,96800,2.265625,2.234375,1.630987286567688
04-02-1992,2.1875,2.21875,355200,2.234375,2.203125,1.6081756353378296
05-02-1992,2.15625,2.203125,604000,2.203125,2.171875,1.585364818572998
06-02-1992,2.09375,2.1875,492800,2.1875,2.09375,1.5283366441726685
07-02-1992,2.078125,2.078125,704000,2.21875,2.21875,1.6195820569992065
10-02-1992,2.234375,2.234375,782400,2.34375,2.328125,1.6994203329086304
11-02-1992,2.3125,2.328125,241600,2.34375,2.3125,1.688014030456543
12-02-1992,2.28125,2.3125,446400,2.328125,2.3125,1.688014030456543
13-02-1992,2.296875,2.3125,161600,2.3125,2.296875,1.6766091585159302
14-02-1992,2.28125,2.296875,190400,2.328125,2.328125,1.6994203329086304
18-02-1992,2.28125,2.3125,504800,2.3125,2.296875,1.6766091585159302
19-02-1992,2.265625,2.28125,20800,2.28125,2.265625,1.6537976264953613
20-02-1992,2.265625,2.265625,260800,2.296875,2.296875,1.6766091585159302
21-02-1992,2.296875,2.296875,311200,2.328125,2.3125,1.688014030456543
24-02-1992,2.3125,2.328125,249600,2.34375,2.3125,1.688014030456543
25-02-1992,2.28125,2.3125,144000,2.3125,2.28125,1.665203332901001
26-02-1992,2.25,2.265625,835200,2.265625,2.265625,1.6537976264953613
27-02-1992,2.25,2.25,67200,2.296875,2.265625,1.6537976264953613
28-02-1992,2.234375,2.234375,321600,2.265625,2.234375,1.630987286567688
02-03-1992,2.25,2.25,588800,2.296875,2.25,1.6423932313919067
03-03-1992,2.25,2.265625,608800,2.28125,2.25,1.6423932313919067
04-03-1992,2.234375,2.234375,488000,2.25,2.25,1.6423932313919067
05-03-1992,2.265625,2.265625,607200,2.28125,2.28125,1.665203332901001
06-03-1992,2.28125,2.28125,404800,2.296875,2.28125,1.665203332901001
09-03-1992,2.28125,2.28125,348000,2.328125,2.328125,1.6994203329086304
10-03-1992,2.328125,2.328125,348000,2.40625,2.390625,1.7450426816940308
11-03-1992,2.390625,2.40625,376000,2.40625,2.40625,1.756447434425354
12-03-1992,2.40625,2.4375,347200,2.4375,2.40625,1.756447434425354
13-03-1992,2.421875,2.4375,138400,2.46875,2.46875,1.8020695447921753
16-03-1992,2.40625,2.5,122400,2.5,2.40625,1.756447434425354
17-03-1992,2.421875,2.4375,569600,2.4375,2.4375,1.7792587280273438
18-03-1992,2.40625,2.421875,46400,2.421875,2.40625,1.756447434425354
19-03-1992,2.375,2.4375,394400,2.4375,2.40625,1.756447434425354
20-03-1992,2.453125,2.46875,232000,2.484375,2.46875,1.8020695447921753
23-03-1992,2.5,2.5,545600,2.546875,2.5,1.8248811960220337
24-03-1992,2.5,2.5,618400,2.578125,2.5625,1.8705029487609863
25-03-1992,2.5625,2.578125,116800,2.578125,2.578125,1.8819093704223633
26-03-1992,2.609375,2.609375,959200,2.734375,2.6875,1.9617464542388916
27-03-1992,2.609375,2.625,236800,2.65625,2.625,1.916126012802124
30-03-1992,2.609375,2.625,324800,2.625,2.625,1.916126012802124
31-03-1992,2.640625,2.640625,307200,2.65625,2.65625,1.9389363527297974
01-04-1992,2.609375,2.65625,172800,2.65625,2.609375,1.9047198295593262
02-04-1992,2.578125,2.609375,878400,2.609375,2.59375,1.8933143615722656
03-04-1992,2.546875,2.5625,109600,2.5625,2.5625,1.8705029487609863
06-04-1992,2.578125,2.578125,336000,2.734375,2.734375,1.9959625005722046
07-04-1992,2.6875,2.734375,612000,2.734375,2.6875,1.9617464542388916
08-04-1992,2.625,2.671875,771200,2.671875,2.625,1.916126012802124
09-04-1992,2.609375,2.609375,170400,2.75,2.75,2.012160301208496
10-04-1992,2.734375,2.734375,213600,2.75,2.734375,2.0007264614105225
13-04-1992,2.75,2.765625,141600,2.78125,2.765625,2.023592233657837
14-04-1992,2.78125,2.78125,228000,2.8125,2.8125,2.0578904151916504
15-04-1992,2.8125,2.8125,312000,2.828125,2.828125,2.0693230628967285
16-04-1992,2.8125,2.8125,39200,2.828125,2.8125,2.0578904151916504
20-04-1992,2.8125,2.8125,245600,2.890625,2.890625,2.1150527000427246
21-04-1992,2.875,2.921875,337600,2.921875,2.90625,2.12648606300354
22-04-1992,2.875,2.890625,8800,2.890625,2.875,2.1036217212677
23-04-1992,2.84375,2.875,1366400,2.984375,2.875,2.1036217212677
24-04-1992,3.0,3.03125,687200,3.171875,3.0,2.195082664489746
27-04-1992,3.03125,3.0625,511200,3.09375,3.046875,2.229379892349243
28-04-1992,3.015625,3.046875,234400,3.046875,3.03125,2.2179484367370605
29-04-1992,3.03125,3.046875,237600,3.046875,3.03125,2.2179484367370605
30-04-1992,3.03125,3.046875,1008800,3.0625,3.046875,2.229379892349243
01-05-1992,3.03125,3.03125,146400,3.046875,3.046875,2.229379892349243
04-05-1992,3.0625,3.0625,251200,3.078125,3.0625,2.240814208984375
05-05-1992,3.046875,3.046875,532000,3.078125,3.078125,2.252246856689453
06-05-1992,3.015625,3.078125,792800,3.078125,3.015625,2.2065157890319824
07-05-1992,2.96875,3.015625,61600,3.015625,2.96875,2.172217607498169
08-05-1992,2.9375,3.0,42400,3.0,2.953125,2.1607847213745117
11-05-1992,2.90625,2.953125,91200,2.953125,2.90625,2.12648606300354
12-05-1992,2.75,2.921875,1191200,2.921875,2.796875,2.0464589595794678
13-05-1992,2.765625,2.796875,261600,2.796875,2.765625,2.023592233657837
14-05-1992,2.6875,2.765625,1236800,2.84375,2.84375,2.080756425857544
15-05-1992,2.8125,2.828125,509600,2.90625,2.890625,2.1150527000427246
18-05-1992,2.90625,2.90625,431200,3.015625,3.0,2.195082664489746
19-05-1992,2.953125,3.0,572000,3.046875,3.046875,2.229379892349243
20-05-1992,3.0625,3.0625,200800,3.09375,3.09375,2.263679265975952
21-05-1992,3.078125,3.078125,946400,3.15625,3.09375,2.263679265975952
22-05-1992,3.078125,3.09375,230400,3.15625,3.140625,2.297978401184082
26-05-1992,3.125,3.140625,1300800,3.1875,3.1875,2.3322761058807373
27-05-1992,3.125,3.203125,1122400,3.25,3.125,2.2865452766418457
28-05-1992,3.078125,3.140625,627200,3.140625,3.125,2.2865452766418457
29-05-1992,3.078125,3.125,368800,3.125,3.09375,2.263679265975952
01-06-1992,3.078125,3.078125,348800,3.171875,3.171875,2.3208436965942383
02-06-1992,3.125,3.140625,108000,3.15625,3.140625,2.297978401184082
03-06-1992,3.125,3.15625,1278400,3.1875,3.15625,2.3094112873077393
04-06-1992,3.125,3.125,1169600,3.140625,3.140625,2.297978401184082
05-06-1992,3.140625,3.15625,816800,3.1875,3.1875,2.3322761058807373
08-06-1992,3.21875,3.21875,1822400,3.375,3.3125,2.423736810684204
09-06-1992,3.28125,3.3125,2077600,3.34375,3.3125,2.423736810684204
10-06-1992,3.21875,3.3125,778400,3.3125,3.28125,2.400871992111206
11-06-1992,3.28125,3.28125,438400,3.40625,3.40625,2.4923317432403564
12-06-1992,3.34375,3.375,2042400,3.375,3.34375,2.446601629257202
15-06-1992,3.296875,3.328125,2438400,3.328125,3.3125,2.423736810684204
16-06-1992,3.296875,3.328125,660800,3.328125,3.296875,2.412304639816284
17-06-1992,3.21875,3.3125,673600,3.3125,3.234375,2.36657452583313
18-06-1992,3.21875,3.21875,948800,3.265625,3.234375,2.36657452583313
19-06-1992,3.234375,3.25,417600,3.265625,3.234375,2.36657452583313
22-06-1992,3.203125,3.203125,568000,3.21875,3.203125,2.3437087535858154
23-06-1992,3.203125,3.203125,518400,3.21875,3.203125,2.3437087535858154
24-06-1992,3.171875,3.21875,224000,3.21875,3.21875,2.3551411628723145
25-06-1992,3.125,3.21875,307200,3.21875,3.125,2.2865452766418457
26-06-1992,3.109375,3.125,629600,3.140625,3.140625,2.297978401184082
29-06-1992,3.125,3.125,1169600,3.1875,3.171875,2.3208436965942383
30-06-1992,3.15625,3.1875,1156800,3.1875,3.1875,2.3322761058807373
01-07-1992,3.203125,3.21875,694400,3.25,3.25,2.378007173538208
02-07-1992,3.25,3.28125,2007200,3.296875,3.28125,2.400871992111206
06-07-1992,3.296875,3.3125,771200,3.328125,3.3125,2.423736810684204
07-07-1992,3.3125,3.3125,655200,3.359375,3.328125,2.4351701736450195
08-07-1992,3.3125,3.328125,480800,3.34375,3.328125,2.4351701736450195
09-07-1992,3.328125,3.34375,424000,3.375,3.359375,2.4626615047454834
10-07-1992,3.328125,3.390625,568800,3.390625,3.328125,2.4397523403167725
13-07-1992,3.328125,3.328125,624800,3.359375,3.359375,2.4626615047454834
14-07-1992,3.390625,3.390625,627200,3.625,3.578125,2.6230201721191406
15-07-1992,3.515625,3.59375,465600,3.609375,3.53125,2.5886573791503906
16-07-1992,3.390625,3.5,143200,3.5,3.421875,2.5084779262542725
17-07-1992,3.421875,3.4375,45600,3.453125,3.4375,2.5199310779571533
20-07-1992,3.390625,3.4375,645600,3.453125,3.390625,2.485570192337036
21-07-1992,3.390625,3.390625,224000,3.421875,3.40625,2.497022867202759
22-07-1992,3.40625,3.40625,235200,3.484375,3.484375,2.5542945861816406
23-07-1992,3.46875,3.5,112000,3.515625,3.5,2.5657496452331543
24-07-1992,3.5,3.5,329600,3.609375,3.609375,2.6459267139434814
27-07-1992,3.5625,3.609375,66400,3.609375,3.59375,2.634474515914917
28-07-1992,3.53125,3.59375,91200,3.59375,3.5625,2.611564874649048
29-07-1992,3.546875,3.5625,84800,3.578125,3.578125,2.6230201721191406
30-07-1992,3.5625,3.5625,565600,3.640625,3.640625,2.668837547302246
31-07-1992,3.625,3.640625,500800,3.65625,3.640625,2.668837547302246
03-08-1992,3.625,3.625,492000,3.703125,3.703125,2.7146530151367188
04-08-1992,3.6875,3.6875,398400,3.71875,3.71875,2.726107597351074
05-08-1992,3.375,3.59375,268800,3.59375,3.40625,2.497022867202759
06-08-1992,3.171875,3.25,1166400,3.265625,3.25,2.3824799060821533
07-08-1992,3.25,3.25,996000,3.515625,3.515625,2.577202558517456
10-08-1992,3.5,3.515625,88000,3.5625,3.546875,2.6001124382019043
11-08-1992,3.546875,3.546875,2608000,3.5625,3.546875,2.6001124382019043
12-08-1992,3.5625,3.5625,92800,3.59375,3.59375,2.634474515914917
13-08-1992,3.609375,3.625,684800,3.734375,3.734375,2.737562894821167
14-08-1992,3.734375,3.78125,1344000,3.84375,3.75,2.7490177154541016
17-08-1992,3.671875,3.71875,1498400,3.71875,3.6875,2.7031993865966797
18-08-1992,3.578125,3.671875,823200,3.6875,3.59375,2.634474515914917
19-08-1992,3.5,3.5,844800,3.6875,3.5625,2.611564874649048
20-08-1992,3.5625,3.625,7611200,3.640625,3.59375,2.634474515914917
21-08-1992,3.59375,3.609375,1631200,3.640625,3.59375,2.634474515914917
24-08-1992,3.578125,3.578125,1412000,3.609375,3.578125,2.6230201721191406
25-08-1992,3.578125,3.578125,1002400,3.71875,3.671875,2.6917455196380615
26-08-1992,3.6875,3.6875,1988000,3.75,3.75,2.7490177154541016
27-08-1992,3.71875,3.734375,872800,3.796875,3.78125,2.771925926208496
28-08-1992,3.8125,3.8125,1732800,3.9375,3.9375,2.8864667415618896
31-08-1992,3.84375,3.90625,1392800,3.984375,3.875,2.840651512145996
01-09-1992,3.859375,3.875,740000,3.9375,3.90625,2.863558292388916
02-09-1992,3.875,3.9375,458400,3.953125,3.890625,2.852104902267456
03-09-1992,3.890625,3.90625,617600,3.921875,3.921875,2.8750133514404297
04-09-1992,3.921875,3.921875,190400,3.96875,3.953125,2.897921085357666
08-09-1992,3.953125,3.953125,1150400,4.09375,4.078125,2.989553928375244
09-09-1992,4.0625,4.078125,660000,4.09375,4.09375,3.001009464263916
10-09-1992,4.0625,4.09375,809600,4.109375,4.078125,2.989553928375244
11-09-1992,4.0625,4.078125,549600,4.109375,4.109375,3.0124638080596924
14-09-1992,4.109375,4.140625,684000,4.171875,4.125,3.0239171981811523
15-09-1992,4.109375,4.125,557600,4.140625,4.109375,3.0124638080596924
16-09-1992,4.09375,4.109375,723200,4.171875,4.125,3.0239171981811523
17-09-1992,4.125,4.125,565600,4.28125,4.21875,3.0926437377929688
18-09-1992,4.1875,4.1875,668000,4.3125,4.3125,3.1613690853118896
21-09-1992,4.328125,4.328125,808000,4.34375,4.34375,3.184274673461914
22-09-1992,4.296875,4.3125,662400,4.375,4.359375,3.1957321166992188
23-09-1992,4.359375,4.375,898400,4.46875,4.375,3.2071869373321533
24-09-1992,4.390625,4.390625,1256800,4.484375,4.46875,3.275912284851074
25-09-1992,4.203125,4.421875,1837600,4.4375,4.25,3.1155519485473633
28-09-1992,4.109375,4.25,1749600,4.25,4.125,3.0239171981811523
29-09-1992,4.171875,4.203125,276800,4.234375,4.234375,3.1040985584259033
30-09-1992,4.15625,4.21875,330400,4.234375,4.15625,3.046825885772705
01-10-1992,4.03125,4.140625,378400,4.140625,4.03125,2.955193519592285
02-10-1992,4.015625,4.046875,772800,4.078125,4.046875,2.966646432876587
05-10-1992,3.953125,4.046875,312000,4.046875,3.96875,2.909374237060547
06-10-1992,3.90625,3.96875,885600,3.96875,3.9375,2.8864667415618896
07-10-1992,3.953125,3.953125,649600,4.015625,3.984375,2.9208312034606934
08-10-1992,3.96875,3.96875,266400,4.0625,4.0,2.9368903636932373
09-10-1992,3.90625,3.96875,112000,4.03125,3.9375,2.8910017013549805
12-10-1992,3.9375,3.9375,351200,3.953125,3.953125,2.9024744033813477
13-10-1992,3.890625,3.9375,412000,3.953125,3.9375,2.8910017013549805
14-10-1992,3.921875,3.9375,341600,3.953125,3.9375,2.8910017013549805
15-10-1992,3.90625,3.9375,205600,3.9375,3.90625,2.8680572509765625
16-10-1992,3.921875,3.921875,1151200,4.078125,4.0625,2.9827802181243896
19-10-1992,4.0625,4.0625,756000,4.3125,4.28125,3.143392562866211
20-10-1992,4.203125,4.265625,209600,4.265625,4.21875,3.0975019931793213
21-10-1992,4.140625,4.203125,104800,4.203125,4.15625,3.051612377166748
22-10-1992,3.953125,4.140625,365600,4.140625,3.953125,2.9024744033813477
23-10-1992,3.9375,3.96875,101600,3.96875,3.953125,2.9024744033813477
26-10-1992,3.953125,3.953125,396800,4.015625,4.0,2.9368903636932373
27-10-1992,3.8125,3.984375,318400,3.984375,3.859375,2.833641529083252
28-10-1992,3.71875,3.859375,920800,3.859375,3.828125,2.810696840286255
29-10-1992,3.828125,3.828125,348000,3.90625,3.84375,2.822169303894043
30-10-1992,3.8125,3.875,143200,3.875,3.8125,2.7992255687713623
02-11-1992,3.828125,3.828125,156800,3.875,3.875,2.8451149463653564
03-11-1992,3.75,3.875,296800,3.875,3.75,2.7533369064331055
04-11-1992,3.65625,3.765625,464000,3.78125,3.65625,2.684502124786377
05-11-1992,3.46875,3.625,1245600,3.625,3.484375,2.558307647705078
06-11-1992,3.53125,3.53125,1823200,3.671875,3.65625,2.684502124786377
09-11-1992,3.5,3.625,1322400,3.65625,3.546875,2.604196548461914
10-11-1992,3.5625,3.5625,1669600,3.625,3.625,2.6615564823150635
11-11-1992,3.5625,3.625,551200,3.625,3.5625,2.615668296813965
12-11-1992,3.5625,3.625,1320800,3.640625,3.578125,2.627140998840332
13-11-1992,3.59375,3.609375,324000,3.640625,3.625,2.6615564823150635
16-11-1992,3.609375,3.609375,257600,3.65625,3.65625,2.684502124786377
17-11-1992,3.625,3.625,304000,3.640625,3.625,2.6615564823150635
18-11-1992,3.625,3.625,693600,3.640625,3.640625,2.673030376434326
19-11-1992,3.46875,3.609375,821600,3.640625,3.5,2.5697805881500244
20-11-1992,3.53125,3.53125,536800,3.59375,3.59375,2.63861346244812
23-11-1992,3.5625,3.5625,660000,3.671875,3.625,2.6615564823150635
24-11-1992,3.578125,3.609375,503200,3.609375,3.59375,2.63861346244812
25-11-1992,3.578125,3.578125,96000,3.609375,3.59375,2.63861346244812
27-11-1992,3.578125,3.59375,230400,3.625,3.625,2.6615564823150635
30-11-1992,3.53125,3.625,539200,3.625,3.546875,2.604196548461914
01-12-1992,3.53125,3.546875,1116800,3.546875,3.53125,2.592724561691284
02-12-1992,3.53125,3.53125,721600,3.578125,3.578125,2.627140998840332
03-12-1992,3.421875,3.5625,1191200,3.5625,3.4375,2.5238897800445557
04-12-1992,3.421875,3.4375,1249600,3.5,3.5,2.5697805881500244
07-12-1992,3.484375,3.484375,167200,3.546875,3.5,2.5697805881500244
08-12-1992,3.453125,3.5,580000,3.515625,3.484375,2.558307647705078
09-12-1992,3.484375,3.5,374400,3.546875,3.53125,2.592724561691284
10-12-1992,3.484375,3.546875,1601600,3.609375,3.609375,2.6500837802886963
11-12-1992,3.65625,3.65625,151200,3.703125,3.671875,2.695974588394165
14-12-1992,3.609375,3.671875,920000,3.671875,3.65625,2.684502124786377
15-12-1992,3.609375,3.640625,406400,3.640625,3.625,2.6615564823150635
16-12-1992,3.59375,3.609375,402400,3.625,3.59375,2.63861346244812
17-12-1992,3.5625,3.609375,52800,3.609375,3.5625,2.615668296813965
18-12-1992,3.578125,3.59375,295200,3.59375,3.59375,2.63861346244812
21-12-1992,3.546875,3.578125,488000,3.578125,3.546875,2.604196548461914
22-12-1992,3.53125,3.5625,960800,3.5625,3.546875,2.604196548461914
23-12-1992,3.515625,3.546875,1008000,3.546875,3.515625,2.5812525749206543
24-12-1992,3.53125,3.546875,655200,3.59375,3.59375,2.63861346244812
28-12-1992,3.53125,3.578125,97600,3.578125,3.546875,2.604196548461914
29-12-1992,3.53125,3.546875,596000,3.59375,3.5625,2.615668296813965
30-12-1992,3.546875,3.578125,639200,3.578125,3.546875,2.604196548461914
31-12-1992,3.5625,3.5625,376000,3.6875,3.671875,2.695974588394165
04-01-1993,3.609375,3.6875,597600,3.71875,3.609375,2.6500837802886963
05-01-1993,3.578125,3.609375,715200,3.6875,3.6875,2.7074472904205322
06-01-1993,3.59375,3.6875,928800,3.6875,3.609375,2.6500837802886963
07-01-1993,3.5625,3.609375,333600,3.609375,3.578125,2.627140998840332
08-01-1993,3.46875,3.578125,1617600,3.578125,3.46875,2.5468356609344482
11-01-1993,3.375,3.484375,410400,3.484375,3.390625,2.494868755340576
12-01-1993,3.359375,3.390625,269600,3.40625,3.40625,2.5063650608062744
13-01-1993,3.359375,3.40625,826400,3.484375,3.46875,2.5523555278778076
14-01-1993,3.34375,3.4375,619200,3.453125,3.34375,2.460376262664795
15-01-1993,3.359375,3.375,1232800,3.421875,3.390625,2.494868755340576
18-01-1993,3.359375,3.390625,460000,3.390625,3.375,2.4833714962005615
19-01-1993,3.359375,3.359375,1157600,3.484375,3.453125,2.54085636138916
20-01-1993,3.4375,3.453125,132800,3.484375,3.46875,2.5523555278778076
21-01-1993,3.4375,3.4375,272800,3.5,3.5,2.575348138809204
22-01-1993,3.5,3.515625,540800,3.59375,3.59375,2.6443305015563965
25-01-1993,3.578125,3.578125,969600,3.703125,3.6875,2.7133140563964844
26-01-1993,3.78125,3.8125,1224000,3.875,3.78125,2.782294750213623
27-01-1993,3.703125,3.734375,636000,3.765625,3.75,2.7593023777008057
28-01-1993,3.75,3.765625,773600,3.90625,3.90625,2.874272584915161
29-01-1993,3.890625,3.90625,492800,4.0,3.96875,2.920259952545166
01-02-1993,4.0,4.0,1876800,4.078125,4.0625,2.9892423152923584
02-02-1993,4.046875,4.046875,1044000,4.09375,4.09375,3.0122368335723877
03-02-1993,4.09375,4.09375,1448000,4.359375,4.296875,3.1616992950439453
04-02-1993,4.328125,4.328125,1330400,4.4375,4.4375,3.2651748657226562
05-02-1993,4.4375,4.4375,1606400,4.515625,4.5,3.3111627101898193
08-02-1993,4.46875,4.5,1975200,4.5,4.5,3.3111627101898193
09-02-1993,4.40625,4.5,756000,4.5,4.421875,3.2536768913269043
10-02-1993,4.359375,4.421875,800000,4.453125,4.375,3.2191853523254395
11-02-1993,4.359375,4.359375,971200,4.5,4.484375,3.29966402053833
12-02-1993,4.46875,4.484375,932000,4.484375,4.484375,3.29966402053833
16-02-1993,4.34375,4.46875,292800,4.46875,4.34375,3.1961894035339355
17-02-1993,4.34375,4.359375,632800,4.40625,4.390625,3.2306816577911377
18-02-1993,4.421875,4.421875,604800,4.484375,4.4375,3.2651748657226562
19-02-1993,4.421875,4.4375,3408800,4.515625,4.5,3.3111627101898193
22-02-1993,4.5,4.5,1140000,4.609375,4.5625,3.357149600982666
23-02-1993,4.5,4.59375,664000,4.59375,4.546875,3.3456525802612305
24-02-1993,4.46875,4.515625,499200,4.515625,4.484375,3.29966402053833
25-02-1993,4.359375,4.484375,259200,4.484375,4.359375,3.2076878547668457
26-02-1993,4.359375,4.390625,128000,4.421875,4.40625,3.2421798706054688
01-03-1993,4.421875,4.4375,1396000,4.53125,4.4375,3.2651748657226562
02-03-1993,4.4375,4.46875,332800,4.484375,4.453125,3.276670455932617
03-03-1993,4.46875,4.46875,4088800,4.84375,4.78125,3.51810884475708
04-03-1993,4.640625,4.75,913600,4.78125,4.734375,3.4836208820343018
05-03-1993,4.6875,4.71875,335200,4.734375,4.6875,3.4491255283355713
08-03-1993,4.703125,4.703125,472000,4.796875,4.78125,3.51810884475708
09-03-1993,4.75,4.796875,324000,4.796875,4.78125,3.51810884475708
10-03-1993,4.734375,4.78125,199200,4.8125,4.8125,3.541105270385742
11-03-1993,4.796875,4.8125,213600,4.921875,4.890625,3.5985870361328125
12-03-1993,4.796875,4.921875,702400,4.921875,4.84375,3.564096450805664
15-03-1993,4.84375,4.84375,209600,4.875,4.875,3.587092161178589
16-03-1993,4.84375,4.859375,316800,4.875,4.859375,3.5755960941314697
17-03-1993,4.859375,4.875,136800,4.984375,4.984375,3.667571783065796
18-03-1993,4.921875,4.96875,444000,5.0,5.0,3.679068088531494
19-03-1993,4.96875,4.984375,300800,5.0,4.96875,3.656074285507202
22-03-1993,4.96875,4.984375,640800,5.0,4.984375,3.667571783065796
23-03-1993,4.96875,5.015625,100800,5.015625,4.96875,3.656074285507202
24-03-1993,4.96875,4.96875,574400,5.078125,4.96875,3.656074285507202
25-03-1993,4.84375,4.90625,1020000,4.921875,4.84375,3.564096450805664
26-03-1993,4.8125,4.84375,753600,4.921875,4.90625,3.6100857257843018
29-03-1993,4.921875,4.921875,589600,4.984375,4.984375,3.667571783065796
30-03-1993,5.0,5.0,663200,5.03125,5.03125,3.7020628452301025
31-03-1993,4.96875,5.03125,558400,5.03125,5.015625,3.6905691623687744
01-04-1993,4.984375,5.03125,537600,5.03125,5.0,3.679068088531494
02-04-1993,4.859375,4.953125,240800,4.953125,4.890625,3.5985870361328125
05-04-1993,4.875,4.90625,292800,4.90625,4.90625,3.6100857257843018
06-04-1993,4.875,4.90625,604800,4.90625,4.875,3.587092161178589
07-04-1993,4.8125,4.84375,860000,4.875,4.875,3.587092161178589
08-04-1993,4.859375,4.859375,24000,4.875,4.875,3.592618465423584
12-04-1993,4.859375,4.859375,325600,4.96875,4.96875,3.661707878112793
13-04-1993,4.84375,4.96875,1076800,5.03125,4.875,3.592618465423584
14-04-1993,4.84375,4.890625,447200,4.890625,4.84375,3.5695877075195312
15-04-1993,4.8125,4.875,231200,4.921875,4.8125,3.5465614795684814
16-04-1993,4.796875,4.828125,356800,4.84375,4.84375,3.5695877075195312
19-04-1993,4.828125,4.828125,173600,4.890625,4.875,3.592618465423584
20-04-1993,4.90625,4.90625,1133600,5.0625,4.984375,3.673222780227661
21-04-1993,4.875,5.015625,185600,5.015625,4.875,3.592618465423584
22-04-1993,4.671875,4.84375,335200,4.84375,4.671875,3.442929983139038
23-04-1993,4.46875,4.671875,786400,4.671875,4.5,3.3162639141082764
26-04-1993,4.515625,4.53125,367200,4.640625,4.625,3.4083824157714844
27-04-1993,4.625,4.65625,108000,4.65625,4.640625,3.4198977947235107
28-04-1993,4.625,4.625,189600,4.640625,4.640625,3.4198977947235107
29-04-1993,4.625,4.65625,383200,4.75,4.75,3.5004985332489014
30-04-1993,4.75,4.75,779200,4.96875,4.921875,3.627164363861084
03-05-1993,4.953125,4.953125,249600,4.984375,4.953125,3.6501924991607666
04-05-1993,4.90625,4.921875,1332800,4.953125,4.921875,3.627164363861084
05-05-1993,4.921875,4.921875,65600,4.9375,4.921875,3.627164363861084
06-05-1993,4.921875,4.921875,664800,5.0,4.9375,3.6386771202087402
07-05-1993,4.90625,4.921875,186400,4.96875,4.921875,3.627164363861084
10-05-1993,4.8125,4.9375,828000,4.9375,4.8125,3.5465614795684814
11-05-1993,4.78125,4.78125,1120800,4.953125,4.9375,3.6386771202087402
12-05-1993,4.90625,4.9375,852000,4.984375,4.953125,3.6501924991607666
13-05-1993,4.90625,4.90625,702400,5.09375,5.0625,3.7307956218719482
14-05-1993,5.0625,5.0625,931200,5.265625,5.171875,3.811401128768921
17-05-1993,5.15625,5.171875,390400,5.203125,5.203125,3.8344311714172363
18-05-1993,5.203125,5.203125,340800,5.328125,5.296875,3.903517961502075
19-05-1993,5.1875,5.3125,412800,5.3125,5.234375,3.8574562072753906
20-05-1993,5.21875,5.21875,216000,5.25,5.234375,3.8574562072753906
21-05-1993,5.203125,5.234375,400000,5.234375,5.21875,3.8459458351135254
24-05-1993,5.21875,5.25,496000,5.25,5.234375,3.8574562072753906
25-05-1993,5.171875,5.1875,400800,5.25,5.1875,3.8229146003723145
26-05-1993,5.15625,5.1875,188000,5.203125,5.203125,3.8344311714172363
27-05-1993,5.203125,5.203125,511200,5.3125,5.3125,3.9150354862213135
28-05-1993,5.28125,5.296875,473600,5.3125,5.3125,3.9150354862213135
01-06-1993,5.328125,5.34375,619200,5.4375,5.40625,3.984121799468994
02-06-1993,5.40625,5.40625,522400,5.625,5.5625,4.099270820617676
03-06-1993,5.484375,5.5625,403200,5.5625,5.515625,4.064724445343018
04-06-1993,5.484375,5.5,889600,5.515625,5.5,4.053210258483887
07-06-1993,5.484375,5.5,482400,5.515625,5.5,4.053210258483887
08-06-1993,5.421875,5.484375,277600,5.484375,5.4375,4.007153034210205
09-06-1993,5.40625,5.40625,262400,5.5,5.5,4.053210258483887
10-06-1993,5.4375,5.484375,779200,5.484375,5.4375,4.007153034210205
11-06-1993,5.234375,5.40625,606400,5.40625,5.234375,3.8574562072753906
14-06-1993,5.125,5.21875,763200,5.21875,5.125,3.7768568992614746
15-06-1993,5.125,5.125,288800,5.15625,5.125,3.7768568992614746
16-06-1993,5.140625,5.140625,219200,5.203125,5.203125,3.8344311714172363
17-06-1993,5.21875,5.21875,193600,5.328125,5.25,3.8689749240875244
18-06-1993,5.265625,5.28125,224800,5.296875,5.265625,3.8804898262023926
21-06-1993,5.28125,5.28125,292800,5.359375,5.34375,3.9380643367767334
22-06-1993,5.265625,5.34375,1112000,5.34375,5.265625,3.8804898262023926
23-06-1993,5.265625,5.265625,2466400,5.296875,5.296875,3.903517961502075
24-06-1993,5.0625,5.296875,637600,5.296875,5.125,3.7768568992614746
25-06-1993,5.109375,5.125,36000,5.125,5.125,3.7768568992614746
28-06-1993,5.125,5.125,204800,5.140625,5.140625,3.788370370864868
29-06-1993,4.984375,5.109375,648000,5.125,5.046875,3.7192821502685547
30-06-1993,5.03125,5.0625,552000,5.09375,5.09375,3.7538251876831055
01-07-1993,5.015625,5.078125,376800,5.078125,5.046875,3.7192821502685547
02-07-1993,5.015625,5.0625,100000,5.0625,5.046875,3.7192821502685547
06-07-1993,5.0,5.046875,437600,5.09375,5.0,3.684736490249634
07-07-1993,4.96875,4.96875,1369600,5.078125,5.078125,3.742311716079712
08-07-1993,5.078125,5.078125,955200,5.1875,5.1875,3.8229146003723145
09-07-1993,5.171875,5.171875,1352000,5.25,5.25,3.8745763301849365
12-07-1993,5.28125,5.28125,900000,5.34375,5.3125,3.9207041263580322
13-07-1993,5.28125,5.3125,100000,5.3125,5.28125,3.8976407051086426
14-07-1993,5.28125,5.28125,538400,5.3125,5.28125,3.8976407051086426
15-07-1993,5.21875,5.3125,338400,5.3125,5.25,3.8745763301849365
16-07-1993,5.234375,5.25,147200,5.265625,5.25,3.8745763301849365
19-07-1993,5.25,5.296875,417600,5.296875,5.28125,3.8976407051086426
20-07-1993,5.25,5.25,713600,5.3125,5.3125,3.9207041263580322
21-07-1993,5.3125,5.3125,395200,5.34375,5.3125,3.9207041263580322
22-07-1993,5.28125,5.3125,314400,5.3125,5.296875,3.9091694355010986
23-07-1993,5.25,5.296875,341600,5.3125,5.3125,3.9207041263580322
26-07-1993,5.296875,5.34375,196000,5.34375,5.296875,3.9091694355010986
27-07-1993,5.21875,5.265625,191200,5.28125,5.25,3.8745763301849365
28-07-1993,5.234375,5.25,356800,5.296875,5.265625,3.886106252670288
29-07-1993,5.25,5.265625,98400,5.3125,5.296875,3.9091694355010986
30-07-1993,5.3125,5.3125,57600,5.328125,5.328125,3.9322328567504883
02-08-1993,5.3125,5.328125,1029600,5.46875,5.46875,4.036017894744873
03-08-1993,5.484375,5.484375,356000,5.578125,5.5625,4.105206489562988
04-08-1993,5.546875,5.546875,400000,5.65625,5.625,4.151332378387451
05-08-1993,5.609375,5.609375,56000,5.640625,5.625,4.151332378387451
06-08-1993,5.578125,5.625,348800,5.625,5.59375,4.128272533416748
09-08-1993,5.609375,5.609375,344800,5.6875,5.6875,4.1974568367004395
10-08-1993,5.6875,5.6875,632800,5.75,5.75,4.243582248687744
11-08-1993,5.78125,5.78125,784800,6.0,6.0,4.4280853271484375
12-08-1993,5.984375,6.0,1103200,6.21875,6.015625,4.439619064331055
13-08-1993,5.9375,6.03125,226400,6.03125,5.9375,4.381962299346924
16-08-1993,5.9375,5.9375,448000,5.984375,5.984375,4.416554927825928
17-08-1993,6.0625,6.0625,640000,6.25,6.25,4.612590789794922
18-08-1993,6.234375,6.234375,805600,6.484375,6.421875,4.739436626434326
19-08-1993,6.3125,6.4375,424000,6.46875,6.3125,4.658717632293701
20-08-1993,6.3125,6.3125,914400,6.453125,6.453125,4.762500762939453
23-08-1993,6.453125,6.46875,964800,6.703125,6.703125,4.947004795074463
24-08-1993,6.53125,6.703125,704000,6.703125,6.5625,4.843217849731445
25-08-1993,6.4375,6.5625,753600,6.578125,6.453125,4.762500762939453
26-08-1993,6.25,6.453125,817600,6.453125,6.296875,4.647182464599609
27-08-1993,6.03125,6.28125,627200,6.28125,6.125,4.5203399658203125
30-08-1993,6.109375,6.125,529600,6.25,6.21875,4.589527606964111
31-08-1993,6.171875,6.234375,888000,6.328125,6.28125,4.635654926300049
01-09-1993,6.28125,6.28125,388800,6.390625,6.375,4.704841136932373
02-09-1993,6.28125,6.375,286400,6.375,6.28125,4.635654926300049
03-09-1993,6.28125,6.28125,135200,6.328125,6.296875,4.647182464599609
07-09-1993,6.125,6.296875,236800,6.328125,6.125,4.5203399658203125
08-09-1993,5.953125,6.125,388800,6.125,5.953125,4.393493175506592
09-09-1993,5.921875,5.953125,533600,5.984375,5.96875,4.405023097991943
10-09-1993,5.953125,5.96875,121600,5.984375,5.984375,4.416554927825928
13-09-1993,5.921875,5.984375,472800,6.03125,5.921875,4.370429039001465
14-09-1993,5.90625,5.953125,633600,5.96875,5.9375,4.381962299346924
15-09-1993,5.921875,5.9375,994400,6.046875,6.0,4.4280853271484375
16-09-1993,6.0,6.0,152800,6.03125,6.0,4.4280853271484375
17-09-1993,5.890625,5.96875,127200,5.96875,5.9375,4.381962299346924
20-09-1993,5.9375,5.9375,248000,5.96875,5.96875,4.405023097991943
21-09-1993,5.96875,5.96875,218400,6.03125,6.015625,4.439619064331055
22-09-1993,5.96875,6.0,99200,6.03125,5.96875,4.405023097991943
23-09-1993,5.953125,5.984375,232800,5.984375,5.984375,4.416554927825928
24-09-1993,5.953125,5.96875,357600,6.0,5.96875,4.405023097991943
27-09-1993,5.953125,5.953125,441600,6.0,5.984375,4.416554927825928
28-09-1993,5.921875,5.984375,326400,5.984375,5.9375,4.381962299346924
29-09-1993,5.9375,5.9375,1200800,6.453125,6.453125,4.762500762939453
30-09-1993,6.453125,6.453125,755200,6.625,6.625,4.889346599578857
01-10-1993,6.59375,6.59375,599200,6.71875,6.71875,4.958535671234131
04-10-1993,6.640625,6.71875,248000,6.75,6.640625,4.900877475738525
05-10-1993,6.578125,6.65625,122400,6.65625,6.578125,4.854752540588379
06-10-1993,6.5,6.578125,114400,6.578125,6.53125,4.820158004760742
07-10-1993,6.4375,6.5,224000,6.5,6.484375,4.785563945770264
08-10-1993,6.40625,6.484375,245600,6.484375,6.421875,4.744925498962402
11-10-1993,6.25,6.421875,288000,6.421875,6.25,4.617931365966797
12-10-1993,6.125,6.25,272800,6.25,6.125,4.525574684143066
13-10-1993,5.96875,6.078125,826400,6.109375,5.984375,4.4216694831848145
14-10-1993,6.0,6.09375,388000,6.125,6.03125,4.456303596496582
15-10-1993,5.828125,6.0,707200,6.0,5.875,4.340854644775391
18-10-1993,5.71875,5.875,719200,5.875,5.75,4.24849796295166
19-10-1993,5.484375,5.75,1467200,5.875,5.828125,4.306221008300781
20-10-1993,5.3125,5.796875,1626400,5.796875,5.3125,3.925244092941284
21-10-1993,5.4375,5.4375,3216000,5.6875,5.5,4.063779830932617
22-10-1993,5.375,5.5,928800,5.5,5.375,3.9714221954345703
25-10-1993,5.28125,5.375,901600,5.421875,5.28125,3.902153730392456
26-10-1993,5.0,5.28125,1536800,5.3125,5.03125,3.717435121536255
27-10-1993,5.0625,5.0625,1416000,5.1875,5.1875,3.8328845500946045
28-10-1993,5.1875,5.1875,1215200,5.453125,5.453125,4.029144287109375
29-10-1993,5.328125,5.421875,412800,5.46875,5.34375,3.9483327865600586
01-11-1993,5.34375,5.359375,379200,5.484375,5.453125,4.029144287109375
02-11-1993,5.453125,5.453125,553600,5.578125,5.5625,4.109959602355957
03-11-1993,5.578125,5.609375,540800,5.671875,5.625,4.156139850616455
04-11-1993,5.625,5.65625,345600,5.734375,5.625,4.156139850616455
05-11-1993,5.53125,5.625,112800,5.625,5.5625,4.109959602355957
08-11-1993,5.46875,5.5625,207200,5.5625,5.46875,4.040690898895264
09-11-1993,5.1875,5.46875,542400,5.46875,5.21875,3.8559727668762207
10-11-1993,5.21875,5.25,191200,5.28125,5.265625,3.890606641769409
11-11-1993,5.203125,5.28125,564800,5.40625,5.21875,3.8559727668762207
12-11-1993,5.0625,5.203125,1202400,5.203125,5.203125,3.844428539276123
15-11-1993,5.140625,5.203125,675200,5.234375,5.140625,3.798248052597046
16-11-1993,4.875,4.96875,827200,4.984375,4.9375,3.648167133331299
17-11-1993,4.9375,5.0,1617600,5.203125,5.203125,3.844428539276123
18-11-1993,5.15625,5.203125,463200,5.359375,5.296875,3.913696050643921
19-11-1993,5.21875,5.25,85600,5.265625,5.265625,3.890606641769409
22-11-1993,5.078125,5.25,173600,5.25,5.078125,3.752070665359497
23-11-1993,5.078125,5.109375,697600,5.21875,5.09375,3.7636125087738037
24-11-1993,5.109375,5.109375,556800,5.15625,5.15625,3.8097951412200928
26-11-1993,5.03125,5.125,94400,5.125,5.03125,3.717435121536255
29-11-1993,4.828125,4.96875,1270400,4.96875,4.828125,3.5673511028289795
30-11-1993,4.78125,4.84375,457600,4.859375,4.828125,3.5673511028289795
01-12-1993,4.828125,4.859375,316000,4.921875,4.859375,3.590444326400757
02-12-1993,4.84375,4.84375,429600,4.90625,4.859375,3.590444326400757
03-12-1993,4.875,4.875,142400,4.90625,4.875,3.6019887924194336
06-12-1993,4.84375,4.875,308800,4.90625,4.890625,3.6135313510894775
07-12-1993,4.859375,4.875,528800,4.953125,4.90625,3.6250760555267334
08-12-1993,4.84375,4.890625,89600,4.890625,4.859375,3.590444326400757
09-12-1993,4.71875,4.859375,69600,4.859375,4.78125,3.5327186584472656
10-12-1993,4.796875,4.796875,271200,4.84375,4.828125,3.5673511028289795
13-12-1993,4.71875,4.859375,102400,4.859375,4.765625,3.5211734771728516
14-12-1993,4.734375,4.796875,620800,4.8125,4.8125,3.555806875228882
15-12-1993,4.71875,4.765625,128000,4.765625,4.734375,3.498084783554077
16-12-1993,4.75,4.75,565600,4.84375,4.78125,3.5327186584472656
17-12-1993,4.734375,4.796875,200800,4.8125,4.75,3.509627103805542
20-12-1993,4.40625,4.71875,927200,4.71875,4.515625,3.336456060409546
21-12-1993,4.265625,4.546875,880000,4.546875,4.4375,3.2787327766418457
22-12-1993,4.40625,4.453125,676000,4.75,4.734375,3.498084783554077
23-12-1993,4.703125,4.703125,176000,4.796875,4.75,3.509627103805542
27-12-1993,4.6875,4.6875,1060000,4.890625,4.859375,3.590444326400757
28-12-1993,4.8125,4.890625,629600,4.921875,4.8125,3.555806875228882
29-12-1993,4.828125,4.828125,648000,4.890625,4.859375,3.590444326400757
30-12-1993,4.828125,4.84375,270400,4.859375,4.859375,3.590444326400757
31-12-1993,4.828125,4.859375,112800,4.875,4.875,3.6019887924194336
03-01-1994,4.828125,4.875,332000,4.875,4.875,3.6019887924194336
04-01-1994,4.84375,4.84375,202400,4.890625,4.890625,3.6135313510894775
05-01-1994,4.96875,4.96875,800000,5.25,5.203125,3.844428539276123
06-01-1994,5.234375,5.234375,999200,5.484375,5.453125,4.029144287109375
07-01-1994,5.40625,5.46875,704800,5.46875,5.4375,4.017601013183594
10-01-1994,5.421875,5.421875,573600,5.640625,5.640625,4.173440456390381
11-01-1994,5.453125,5.59375,1028800,5.59375,5.5,4.069393634796143
12-01-1994,5.390625,5.5,296000,5.53125,5.40625,4.000027656555176
13-01-1994,5.3125,5.40625,10779200,5.421875,5.3125,3.9306652545928955
14-01-1994,5.15625,5.28125,1295200,5.328125,5.15625,3.8150551319122314
17-01-1994,5.21875,5.25,1098400,5.3125,5.296875,3.9191017150878906
18-01-1994,5.3125,5.3125,851200,5.4375,5.4375,4.023151874542236
19-01-1994,5.46875,5.46875,1249600,5.609375,5.515625,4.080953598022461
20-01-1994,5.359375,5.515625,487200,5.5625,5.359375,3.965348958969116
21-01-1994,5.34375,5.390625,354400,5.421875,5.375,3.9769067764282227
24-01-1994,5.3125,5.390625,408800,5.40625,5.3125,3.9306652545928955
25-01-1994,5.296875,5.3125,284000,5.328125,5.3125,3.9306652545928955
26-01-1994,5.265625,5.3125,873600,5.40625,5.375,3.9769067764282227
27-01-1994,5.375,5.375,1322400,5.5625,5.546875,4.104074954986572
28-01-1994,5.484375,5.5,303200,5.515625,5.5,4.069393634796143
31-01-1994,5.515625,5.53125,787200,5.671875,5.515625,4.080953598022461
01-02-1994,5.546875,5.546875,700800,5.625,5.609375,4.150318145751953
02-02-1994,5.578125,5.578125,999200,5.9375,5.765625,4.265925407409668
03-02-1994,5.734375,5.8125,155200,5.8125,5.75,4.254366397857666
04-02-1994,5.703125,5.78125,1171200,5.828125,5.71875,4.23124361038208
07-02-1994,5.609375,5.671875,363200,5.671875,5.625,4.161879539489746
08-02-1994,5.59375,5.625,355200,5.75,5.734375,4.242806434631348
09-02-1994,5.59375,5.734375,272800,5.734375,5.65625,4.185000419616699
10-02-1994,5.5,5.65625,944800,5.65625,5.5,4.069393634796143
11-02-1994,5.5,5.53125,212800,5.71875,5.6875,4.2081217765808105
14-02-1994,5.40625,5.6875,335200,5.6875,5.5,4.069393634796143
15-02-1994,5.46875,5.46875,137600,5.53125,5.5,4.069393634796143
16-02-1994,5.375,5.46875,541600,5.484375,5.375,3.9769067764282227
17-02-1994,5.34375,5.390625,538400,5.46875,5.34375,3.9537854194641113
18-02-1994,5.328125,5.375,437600,5.390625,5.34375,3.9537854194641113
22-02-1994,5.359375,5.375,83200,5.40625,5.375,3.9769067764282227
23-02-1994,5.34375,5.34375,152000,5.4375,5.421875,4.0115885734558105
24-02-1994,5.375,5.421875,108800,5.4375,5.4375,4.023151874542236
25-02-1994,5.46875,5.5,848800,5.5625,5.46875,4.046268939971924
28-02-1994,5.375,5.46875,57600,5.46875,5.375,3.9769067764282227
01-03-1994,5.34375,5.40625,180000,5.40625,5.375,3.9769067764282227
02-03-1994,5.28125,5.34375,310400,5.34375,5.3125,3.9306652545928955
03-03-1994,5.296875,5.328125,92800,5.34375,5.3125,3.9306652545928955
04-03-1994,5.296875,5.296875,196800,5.40625,5.390625,3.9884679317474365
07-03-1994,5.34375,5.40625,268800,5.40625,5.34375,3.9537854194641113
08-03-1994,5.234375,5.3125,516800,5.328125,5.234375,3.8728585243225098
09-03-1994,4.96875,5.203125,609600,5.203125,5.03125,3.722569704055786
10-03-1994,4.921875,5.015625,894400,5.046875,4.9375,3.653205156326294
11-03-1994,4.921875,4.953125,410400,5.03125,5.015625,3.711012363433838
14-03-1994,5.015625,5.015625,308800,5.1875,5.171875,3.826617956161499
15-03-1994,5.21875,5.21875,446400,5.328125,5.28125,3.9075429439544678
16-03-1994,5.25,5.265625,458400,5.296875,5.28125,3.9075429439544678
17-03-1994,5.265625,5.265625,423200,5.515625,5.484375,4.057833194732666
18-03-1994,5.5,5.53125,879200,5.6875,5.6875,4.2081217765808105
21-03-1994,5.671875,5.71875,813600,5.734375,5.71875,4.23124361038208
22-03-1994,5.6875,5.6875,1078400,5.8125,5.796875,4.289048194885254
23-03-1994,5.625,5.6875,722400,5.6875,5.671875,4.196560859680176
24-03-1994,5.5625,5.59375,674400,5.65625,5.625,4.161879539489746
25-03-1994,5.609375,5.609375,510400,5.671875,5.625,4.161879539489746
28-03-1994,5.4375,5.609375,1590400,5.609375,5.4375,4.023151874542236
29-03-1994,5.25,5.421875,617600,5.421875,5.25,3.8844187259674072
30-03-1994,5.109375,5.234375,567200,5.328125,5.3125,3.9306652545928955
31-03-1994,5.265625,5.3125,148800,5.34375,5.34375,3.9537854194641113
04-04-1994,5.25,5.3125,445600,5.3125,5.265625,3.8959810733795166
05-04-1994,5.234375,5.28125,940000,5.328125,5.25,3.8844187259674072
06-04-1994,5.21875,5.3125,240000,5.375,5.375,3.9769067764282227
07-04-1994,5.34375,5.375,574400,5.4375,5.34375,3.9537854194641113
08-04-1994,5.3125,5.328125,169600,5.34375,5.34375,3.9537854194641113
11-04-1994,5.265625,5.3125,698400,5.3125,5.296875,3.9246106147766113
12-04-1994,5.3125,5.3125,1101600,5.40625,5.375,3.982496738433838
13-04-1994,5.359375,5.375,604000,5.4375,5.4375,4.028804779052734
14-04-1994,5.359375,5.390625,1280800,5.53125,5.53125,4.0982666015625
15-04-1994,5.46875,5.53125,826400,5.875,5.875,4.352961540222168
18-04-1994,5.6875,5.8125,1331200,5.8125,5.796875,4.2950758934021
19-04-1994,5.734375,5.78125,704000,5.8125,5.734375,4.248767852783203
20-04-1994,5.703125,5.71875,727200,5.71875,5.71875,4.237189769744873
21-04-1994,5.703125,5.703125,480000,5.765625,5.75,4.260344982147217
22-04-1994,5.71875,5.734375,332000,5.796875,5.765625,4.271921634674072
25-04-1994,5.734375,5.765625,498400,5.9375,5.9375,4.399271488189697
26-04-1994,5.9375,5.9375,1096000,5.96875,5.96875,4.422423839569092
28-04-1994,5.9375,5.953125,856800,6.015625,5.953125,4.4108476638793945
29-04-1994,5.890625,5.9375,535200,5.9375,5.9375,4.399271488189697
02-05-1994,5.890625,5.90625,652000,5.953125,5.953125,4.4108476638793945
03-05-1994,5.859375,5.9375,560800,5.9375,5.875,4.352961540222168
04-05-1994,5.875,5.875,358400,5.9375,5.9375,4.399271488189697
05-05-1994,5.921875,5.96875,66400,5.96875,5.921875,4.387692451477051
06-05-1994,5.921875,5.921875,343200,6.125,6.09375,4.515038013458252
09-05-1994,6.03125,6.109375,453600,6.109375,6.078125,4.503463268280029
10-05-1994,6.09375,6.140625,632800,6.140625,6.09375,4.515038013458252
11-05-1994,6.03125,6.09375,187200,6.109375,6.03125,4.468731880187988
12-05-1994,6.03125,6.046875,806400,6.15625,6.140625,4.549770355224609
13-05-1994,6.109375,6.109375,257600,6.125,6.125,4.5381927490234375
16-05-1994,6.109375,6.140625,293600,6.140625,6.109375,4.526615619659424
17-05-1994,5.890625,6.09375,1044000,6.09375,5.953125,4.4108476638793945
18-05-1994,5.90625,5.96875,1417600,5.984375,5.96875,4.422423839569092
19-05-1994,5.890625,5.984375,205600,5.984375,5.890625,4.364536285400391
20-05-1994,5.8125,5.90625,309600,5.90625,5.828125,4.318231105804443
23-05-1994,5.765625,5.796875,208800,5.8125,5.765625,4.271921634674072
24-05-1994,5.703125,5.75,287200,5.75,5.703125,4.225613594055176
25-05-1994,5.65625,5.71875,179200,5.71875,5.65625,4.190883159637451
26-05-1994,5.515625,5.59375,840800,5.625,5.546875,4.10984468460083
27-05-1994,5.53125,5.5625,70400,5.59375,5.578125,4.132996082305908
31-05-1994,5.5,5.546875,752800,5.578125,5.5,4.075113296508789
01-06-1994,5.5,5.5,480800,5.546875,5.515625,4.086688995361328
02-06-1994,5.46875,5.5,600000,5.53125,5.46875,4.051957130432129
03-06-1994,5.34375,5.453125,136800,5.453125,5.421875,4.017226696014404
06-06-1994,5.453125,5.5,132800,5.5,5.46875,4.051957130432129
07-06-1994,5.46875,5.46875,863200,5.578125,5.5625,4.121419429779053
08-06-1994,5.4375,5.5625,276800,5.5625,5.46875,4.051957130432129
09-06-1994,5.375,5.4375,304800,5.4375,5.375,3.982496738433838
10-06-1994,5.375,5.375,165600,5.578125,5.578125,4.132996082305908
13-06-1994,5.578125,5.578125,736800,5.703125,5.6875,4.214035511016846
14-06-1994,5.703125,5.703125,476000,5.75,5.75,4.260344982147217
15-06-1994,5.71875,5.75,292000,5.78125,5.734375,4.248767852783203
16-06-1994,5.71875,5.71875,132000,5.78125,5.78125,4.283497333526611
17-06-1994,5.75,5.75,384000,5.90625,5.90625,4.376113414764404
20-06-1994,5.75,5.9375,174800,5.9375,5.84375,4.329807281494141
21-06-1994,5.78125,5.78125,166400,5.90625,5.90625,4.376113414764404
22-06-1994,5.875,5.96875,52800,5.96875,5.90625,4.376113414764404
23-06-1994,5.75,5.96875,197200,5.96875,5.75,4.260344982147217
24-06-1994,5.59375,5.75,143200,5.75,5.71875,4.237189769744873
27-06-1994,5.625,5.6875,136800,5.75,5.71875,4.237189769744873
28-06-1994,5.59375,5.65625,190800,5.71875,5.71875,4.237189769744873
29-06-1994,5.65625,5.71875,94800,5.75,5.75,4.260344982147217
30-06-1994,5.59375,5.6875,440400,5.75,5.75,4.260344982147217
01-07-1994,5.625,5.75,150400,5.75,5.65625,4.190883159637451
05-07-1994,5.5,5.6875,72400,5.6875,5.5,4.075113296508789
06-07-1994,5.46875,5.5,182800,5.6875,5.6875,4.214035511016846
07-07-1994,5.59375,5.71875,36000,5.71875,5.59375,4.144575595855713
08-07-1994,5.5,5.5625,24000,5.59375,5.5,4.075113296508789
11-07-1994,5.5,5.53125,51600,5.5625,5.5625,4.127048969268799
12-07-1994,5.5,5.5625,98800,5.59375,5.5625,4.127048969268799
13-07-1994,5.40625,5.59375,277200,5.65625,5.5,4.0806779861450195
14-07-1994,5.4375,5.53125,72800,5.53125,5.4375,4.034305572509766
15-07-1994,5.34375,5.40625,68800,5.40625,5.375,3.9879348278045654
18-07-1994,5.3125,5.4375,261600,5.46875,5.46875,4.05748987197876
19-07-1994,5.375,5.4375,143200,5.4375,5.375,3.9879348278045654
20-07-1994,5.3125,5.40625,31600,5.40625,5.3125,3.9415647983551025
21-07-1994,5.1875,5.1875,230800,5.34375,5.34375,3.9647490978240967
22-07-1994,5.1875,5.3125,37600,5.3125,5.21875,3.872006893157959
25-07-1994,5.03125,5.25,187200,5.25,5.03125,3.7328922748565674
26-07-1994,4.9375,5.0625,230000,5.0625,4.96875,3.6865217685699463
27-07-1994,4.90625,5.0,551200,5.03125,4.9375,3.6633353233337402
28-07-1994,4.9375,4.9375,342800,5.0,5.0,3.709707021713257
29-07-1994,4.96875,5.0,209600,5.0,4.96875,3.6865217685699463
01-08-1994,4.9375,4.9375,620000,5.0,5.0,3.709707021713257
02-08-1994,4.9375,4.96875,216400,5.0,5.0,3.709707021713257
03-08-1994,4.90625,4.96875,430800,5.03125,5.0,3.709707021713257
04-08-1994,4.9375,4.96875,156400,5.0625,5.0,3.709707021713257
05-08-1994,4.78125,4.96875,233200,5.0,4.78125,3.547407388687134
08-08-1994,4.8125,4.84375,731600,4.90625,4.84375,3.593777656555176
09-08-1994,4.78125,4.8125,1479200,5.0,5.0,3.709707021713257
10-08-1994,5.03125,5.0625,600000,5.125,5.0625,3.7560770511627197
11-08-1994,4.96875,5.03125,326800,5.09375,4.96875,3.6865217685699463
12-08-1994,4.9375,4.96875,558400,5.03125,5.0,3.709707021713257
15-08-1994,4.96875,5.0,71600,5.0625,4.96875,3.6865217685699463
16-08-1994,4.9375,5.0,300800,5.0,4.9375,3.6633353233337402
17-08-1994,4.90625,4.9375,148800,5.0,4.96875,3.6865217685699463
18-08-1994,4.90625,4.96875,228400,4.96875,4.9375,3.6633353233337402
19-08-1994,4.90625,4.9375,330400,4.953125,4.90625,3.6401500701904297
22-08-1994,4.8125,4.9375,137200,4.9375,4.8125,3.5705928802490234
23-08-1994,4.78125,4.875,459200,4.90625,4.84375,3.593777656555176
24-08-1994,4.875,4.875,956000,5.03125,4.9375,3.6633353233337402
25-08-1994,4.75,4.96875,773200,4.96875,4.78125,3.547407388687134
26-08-1994,4.65625,4.8125,1071600,4.875,4.8125,3.5705928802490234
29-08-1994,4.625,4.875,1677600,4.875,4.71875,3.501034736633301
30-08-1994,4.6875,4.71875,976800,4.8125,4.8125,3.5705928802490234
31-08-1994,4.75,4.8125,1103600,4.90625,4.8125,3.5705928802490234
01-09-1994,4.78125,4.78125,967600,4.875,4.84375,3.593777656555176
02-09-1994,4.84375,4.90625,250400,4.9375,4.9375,3.6633353233337402
06-09-1994,4.875,4.90625,397200,5.03125,5.03125,3.7328922748565674
07-09-1994,5.0625,5.0625,1347600,5.25,5.1875,3.848820447921753
08-09-1994,5.125,5.125,1925200,5.4375,5.4375,4.034305572509766
09-09-1994,5.125,5.375,1384800,5.375,5.125,3.8024497032165527
12-09-1994,5.125,5.1875,572800,5.21875,5.125,3.8024497032165527
13-09-1994,5.125,5.15625,136400,5.1875,5.15625,3.825634002685547
14-09-1994,5.125,5.125,378800,5.25,5.25,3.8951902389526367
15-09-1994,5.21875,5.25,1040800,5.3125,5.25,3.8951902389526367
16-09-1994,5.25,5.28125,429600,5.375,5.375,3.9879348278045654
19-09-1994,5.25,5.375,374400,5.375,5.25,3.8951902389526367
20-09-1994,5.0,5.1875,248400,5.1875,5.125,3.8024497032165527
21-09-1994,4.9375,5.125,303200,5.125,5.0,3.709707021713257
22-09-1994,5.0,5.0625,68000,5.0625,5.0,3.709707021713257
23-09-1994,5.0625,5.0625,456000,5.21875,5.1875,3.848820447921753
26-09-1994,5.15625,5.15625,168800,5.25,5.25,3.8951902389526367
27-09-1994,5.15625,5.21875,271200,5.21875,5.1875,3.848820447921753
28-09-1994,5.15625,5.1875,45600,5.21875,5.15625,3.825634002685547
29-09-1994,5.125,5.1875,135200,5.1875,5.15625,3.825634002685547
30-09-1994,5.0625,5.1875,63600,5.1875,5.09375,3.7792611122131348
03-10-1994,5.0625,5.09375,100000,5.125,5.0625,3.7560770511627197
04-10-1994,4.96875,5.09375,256800,5.09375,4.96875,3.6865217685699463
05-10-1994,4.96875,4.96875,100400,5.03125,5.03125,3.7328922748565674
06-10-1994,5.03125,5.0625,187200,5.125,5.0625,3.7560770511627197
07-10-1994,5.09375,5.09375,220000,5.3125,5.28125,3.924192428588867
10-10-1994,5.28125,5.28125,344000,5.375,5.3125,3.9474127292633057
11-10-1994,5.3125,5.3125,328800,5.375,5.3125,3.9474127292633057
12-10-1994,5.15625,5.25,155600,5.25,5.15625,3.8313100337982178
13-10-1994,5.1875,5.21875,285600,5.28125,5.25,3.9009695053100586
14-10-1994,5.1875,5.25,151200,5.25,5.25,3.9009695053100586
17-10-1994,5.25,5.3125,88000,5.3125,5.25,3.9009695053100586
18-10-1994,5.25,5.25,153200,5.375,5.375,3.993851661682129
19-10-1994,5.34375,5.34375,236000,5.4375,5.34375,3.9706315994262695
20-10-1994,5.21875,5.3125,174000,5.34375,5.25,3.9009695053100586
21-10-1994,5.1875,5.1875,66800,5.25,5.21875,3.877751588821411
24-10-1994,5.1875,5.25,72800,5.34375,5.3125,3.9474127292633057
25-10-1994,5.1875,5.3125,243200,5.34375,5.25,3.9009695053100586
26-10-1994,5.21875,5.25,512800,5.40625,5.40625,4.017070770263672
27-10-1994,5.375,5.375,1548800,5.625,5.53125,4.109951496124268
28-10-1994,5.46875,5.5,638000,5.6875,5.65625,4.202831745147705
31-10-1994,5.5,5.625,102000,5.625,5.53125,4.109951496124268
01-11-1994,5.46875,5.53125,71200,5.5625,5.5625,4.133172035217285
02-11-1994,5.4375,5.53125,349600,5.53125,5.46875,4.063509941101074
03-11-1994,5.46875,5.5,54000,5.5625,5.53125,4.109951496124268
04-11-1994,5.46875,5.46875,237600,5.53125,5.46875,4.063509941101074
07-11-1994,5.4375,5.5,145600,5.5,5.4375,4.0402913093566895
08-11-1994,5.375,5.40625,126800,5.4375,5.40625,4.017070770263672
09-11-1994,5.4375,5.4375,328400,5.46875,5.4375,4.0402913093566895
10-11-1994,5.4375,5.4375,60800,5.46875,5.4375,4.0402913093566895
11-11-1994,5.34375,5.4375,80800,5.46875,5.34375,3.9706315994262695
14-11-1994,5.21875,5.3125,125600,5.3125,5.25,3.9009695053100586
15-11-1994,5.21875,5.25,166400,5.28125,5.28125,3.924192428588867
16-11-1994,5.15625,5.21875,154800,5.25,5.15625,3.8313100337982178
17-11-1994,4.90625,5.09375,990400,5.09375,4.96875,3.6919913291931152
18-11-1994,4.625,4.90625,1564800,4.90625,4.78125,3.552670478820801
21-11-1994,4.71875,4.8125,789600,4.84375,4.75,3.5294480323791504
22-11-1994,4.625,4.6875,559600,4.71875,4.6875,3.4830102920532227
23-11-1994,4.5,4.71875,952400,4.71875,4.59375,3.4133503437042236
25-11-1994,4.53125,4.5625,45600,4.59375,4.53125,3.3669073581695557
28-11-1994,4.46875,4.59375,1295600,4.59375,4.53125,3.3669073581695557
29-11-1994,4.46875,4.53125,1277200,4.625,4.59375,3.4133503437042236
30-11-1994,4.53125,4.625,410400,4.625,4.53125,3.3669073581695557
01-12-1994,4.5,4.53125,507600,4.65625,4.625,3.4365692138671875
02-12-1994,4.625,4.625,588000,4.6875,4.625,3.4365692138671875
05-12-1994,4.375,4.59375,1013600,4.65625,4.375,3.250810146331787
06-12-1994,4.375,4.375,664400,4.4375,4.375,3.250810146331787
07-12-1994,4.34375,4.375,218400,4.5625,4.5625,3.390129327774048
08-12-1994,4.53125,4.53125,552800,4.8125,4.6875,3.4830102920532227
09-12-1994,4.5625,4.625,588400,4.625,4.59375,3.4133503437042236
12-12-1994,4.625,4.625,519200,4.6875,4.65625,3.4597885608673096
13-12-1994,4.65625,4.65625,408000,4.78125,4.75,3.5294480323791504
14-12-1994,4.78125,4.78125,529200,4.96875,4.9375,3.6687705516815186
15-12-1994,4.8125,4.96875,116000,4.96875,4.84375,3.599109649658203
16-12-1994,4.8125,4.84375,312800,4.875,4.84375,3.599109649658203
19-12-1994,4.75,4.84375,426800,4.84375,4.8125,3.57589054107666
20-12-1994,4.625,4.75,305200,4.8125,4.65625,3.4597885608673096
21-12-1994,4.59375,4.6875,634400,4.6875,4.625,3.4365692138671875
22-12-1994,4.53125,4.65625,284000,4.65625,4.53125,3.3669073581695557
23-12-1994,4.53125,4.5625,29600,4.59375,4.5625,3.390129327774048
27-12-1994,4.4375,4.59375,209600,4.59375,4.5,3.3436906337738037
28-12-1994,4.5,4.5,228800,4.59375,4.59375,3.4133503437042236
29-12-1994,4.65625,4.65625,221200,4.8125,4.71875,3.5062291622161865
30-12-1994,4.6875,4.71875,150400,4.78125,4.6875,3.4830102920532227
03-01-1995,4.65625,4.75,129600,4.78125,4.75,3.5294480323791504
04-01-1995,4.6875,4.75,68400,4.8125,4.71875,3.5062291622161865
05-01-1995,4.59375,4.65625,260000,4.6875,4.65625,3.4597885608673096
06-01-1995,4.5,4.6875,404800,4.6875,4.5625,3.390129327774048
09-01-1995,4.46875,4.53125,613600,4.5625,4.46875,3.3259365558624268
10-01-1995,4.3125,4.4375,289600,4.4375,4.3125,3.2096457481384277
11-01-1995,4.3125,4.3125,124800,4.40625,4.40625,3.279419183731079
12-01-1995,4.3125,4.375,374400,4.4375,4.3125,3.2096457481384277
13-01-1995,4.28125,4.3125,66800,4.40625,4.375,3.2561635971069336
16-01-1995,4.28125,4.3125,480800,4.328125,4.3125,3.2096457481384277
17-01-1995,4.3125,4.3125,437600,4.4375,4.40625,3.279419183731079
18-01-1995,4.40625,4.40625,606000,4.59375,4.5625,3.3957114219665527
19-01-1995,4.5,4.5625,248000,4.5625,4.5,3.3491954803466797
20-01-1995,4.5,4.53125,76400,4.53125,4.53125,3.3724515438079834
23-01-1995,4.375,4.46875,128800,4.5,4.375,3.2561635971069336
24-01-1995,4.375,4.375,345600,4.5625,4.53125,3.3724515438079834
25-01-1995,4.46875,4.53125,129600,4.53125,4.5,3.3491954803466797
26-01-1995,4.5,4.5,145200,4.625,4.625,3.442227840423584
27-01-1995,4.5,4.5625,512000,4.59375,4.53125,3.3724515438079834
30-01-1995,4.4375,4.53125,193200,4.53125,4.46875,3.3259365558624268
31-01-1995,4.4375,4.4375,186400,4.53125,4.4375,3.302677869796753
01-02-1995,4.4375,4.4375,46000,4.5,4.46875,3.3259365558624268
02-02-1995,4.4375,4.46875,41600,4.5,4.46875,3.3259365558624268
03-02-1995,4.4375,4.5,243600,4.53125,4.5,3.3491954803466797
06-02-1995,4.5625,4.625,651200,4.8125,4.75,3.535259962081909
07-02-1995,4.6875,4.8125,437200,4.8125,4.6875,3.4887428283691406
08-02-1995,4.71875,4.71875,549600,4.8125,4.75,3.535259962081909
09-02-1995,4.6875,4.78125,278800,4.78125,4.6875,3.4887428283691406
10-02-1995,4.6875,4.71875,243600,4.78125,4.78125,3.5585198402404785
13-02-1995,4.8125,4.8125,264800,4.90625,4.84375,3.605034828186035
14-02-1995,4.75,4.84375,137600,4.84375,4.84375,3.605034828186035
15-02-1995,4.8125,4.84375,277200,4.96875,4.9375,3.674812078475952
16-02-1995,4.9375,4.9375,477600,5.03125,5.0,3.7213287353515625
17-02-1995,5.0,5.0,261200,5.125,5.125,3.814361095428467
21-02-1995,5.09375,5.125,92400,5.125,5.125,3.814361095428467
22-02-1995,5.0625,5.09375,214400,5.125,5.09375,3.791100025177002
23-02-1995,5.0625,5.125,348800,5.15625,5.15625,3.8376195430755615
24-02-1995,5.09375,5.15625,281200,5.15625,5.125,3.814361095428467
27-02-1995,5.09375,5.125,381600,5.15625,5.15625,3.8376195430755615
28-02-1995,5.15625,5.1875,322400,5.21875,5.21875,3.8841359615325928
01-03-1995,5.15625,5.1875,70800,5.1875,5.15625,3.8376195430755615
02-03-1995,5.15625,5.15625,218800,5.25,5.25,3.9073939323425293
03-03-1995,5.21875,5.25,259600,5.28125,5.25,3.9073939323425293
06-03-1995,5.15625,5.25,236400,5.25,5.21875,3.8841359615325928
07-03-1995,5.125,5.25,405200,5.25,5.125,3.814361095428467
08-03-1995,5.125,5.15625,442800,5.28125,5.21875,3.8841359615325928
09-03-1995,5.1875,5.25,179600,5.28125,5.28125,3.9306509494781494
10-03-1995,5.15625,5.25,170400,5.25,5.15625,3.8376195430755615
13-03-1995,5.15625,5.1875,100800,5.21875,5.1875,3.8608787059783936
14-03-1995,5.1875,5.1875,101600,5.25,5.25,3.9073939323425293
15-03-1995,5.25,5.25,317200,5.34375,5.3125,3.953911542892456
16-03-1995,5.28125,5.28125,635600,5.5,5.4375,4.046945095062256
17-03-1995,5.3125,5.40625,492800,5.5,5.4375,4.046945095062256
20-03-1995,5.28125,5.40625,426800,5.5,5.34375,3.9771687984466553
21-03-1995,5.25,5.3125,159600,5.3125,5.25,3.9073939323425293
22-03-1995,5.28125,5.3125,349200,5.375,5.3125,3.953911542892456
23-03-1995,5.3125,5.34375,279600,5.4375,5.40625,4.023685455322266
24-03-1995,5.28125,5.40625,696000,5.40625,5.3125,3.953911542892456
27-03-1995,5.3125,5.34375,314400,5.5,5.5,4.093461036682129
28-03-1995,5.5,5.5,268800,5.5625,5.5625,4.139978885650635
29-03-1995,5.5625,5.5625,458000,5.6875,5.625,4.186493396759033
30-03-1995,5.65625,5.65625,414400,5.875,5.875,4.372559547424316
31-03-1995,5.90625,5.90625,1336800,6.21875,6.15625,4.581885814666748
03-04-1995,5.96875,6.15625,1253600,6.15625,5.96875,4.442334175109863
04-04-1995,5.84375,5.96875,666000,5.96875,5.875,4.372559547424316
05-04-1995,5.84375,5.875,1044800,5.96875,5.90625,4.39581823348999
06-04-1995,5.71875,5.875,704000,5.875,5.71875,4.2562689781188965
07-04-1995,5.625,5.6875,227600,5.75,5.625,4.19199275970459
10-04-1995,5.59375,5.59375,525600,5.75,5.75,4.285146713256836
11-04-1995,5.6875,5.78125,668400,5.78125,5.75,4.285146713256836
12-04-1995,5.71875,5.75,110400,5.78125,5.78125,4.3084330558776855
13-04-1995,5.75,5.8125,191600,5.875,5.75,4.285146713256836
17-04-1995,5.75,5.78125,133200,5.8125,5.75,4.285146713256836
18-04-1995,5.5625,5.75,805200,5.75,5.5625,4.145411968231201
19-04-1995,5.53125,5.59375,182400,5.625,5.625,4.19199275970459
20-04-1995,5.625,5.625,356000,5.78125,5.78125,4.3084330558776855
21-04-1995,5.8125,5.8125,1894000,6.1875,6.09375,4.541325092315674
24-04-1995,5.9375,6.125,940800,6.1875,5.9375,4.424881458282471
25-04-1995,5.84375,5.875,103200,5.90625,5.84375,4.3550124168396
26-04-1995,5.71875,5.875,144000,5.875,5.78125,4.3084330558776855
27-04-1995,5.65625,5.78125,390800,5.78125,5.65625,4.215279579162598
28-04-1995,5.6875,5.71875,266400,5.71875,5.71875,4.261857509613037
01-05-1995,5.71875,5.75,529200,5.78125,5.75,4.285146713256836
02-05-1995,5.6875,5.75,406400,5.75,5.75,4.285146713256836
03-05-1995,5.75,5.75,199600,5.8125,5.75,4.285146713256836
04-05-1995,5.6875,5.75,215200,5.75,5.71875,4.261857509613037
05-05-1995,5.65625,5.6875,289200,5.75,5.65625,4.215279579162598
08-05-1995,5.625,5.65625,224000,5.6875,5.65625,4.215279579162598
09-05-1995,5.625,5.65625,509200,5.8125,5.8125,4.331725597381592
10-05-1995,5.78125,5.78125,706400,5.9375,5.9375,4.424881458282471
11-05-1995,5.78125,5.90625,222000,5.90625,5.8125,4.331725597381592
12-05-1995,5.75,5.8125,38800,5.8125,5.78125,4.3084330558776855
15-05-1995,5.78125,5.8125,279600,5.875,5.875,4.378302097320557
16-05-1995,5.84375,5.90625,43200,5.9375,5.84375,4.3550124168396
17-05-1995,5.78125,5.84375,295600,5.84375,5.8125,4.331725597381592
18-05-1995,5.65625,5.8125,107600,5.8125,5.71875,4.261857509613037
19-05-1995,5.71875,5.71875,130800,5.75,5.75,4.285146713256836
22-05-1995,5.6875,5.75,64000,5.75,5.6875,4.238568305969238
23-05-1995,5.71875,5.71875,340800,5.90625,5.875,4.378302097320557
24-05-1995,5.84375,5.875,449200,6.09375,6.09375,4.541325092315674
25-05-1995,6.0,6.03125,798400,6.125,6.0625,4.518035411834717
26-05-1995,5.9375,6.0625,177600,6.0625,5.96875,4.448168754577637
30-05-1995,5.9375,5.9375,303600,6.03125,6.03125,4.494747161865234
31-05-1995,6.0,6.0625,254800,6.0625,6.0625,4.518035411834717
01-06-1995,6.03125,6.0625,26000,6.09375,6.03125,4.494747161865234
02-06-1995,5.9375,6.0625,201600,6.09375,5.96875,4.448168754577637
05-06-1995,5.96875,6.0,137600,6.0,6.0,4.471455097198486
06-06-1995,5.875,6.0,53200,6.0,5.90625,4.40159273147583
07-06-1995,5.8125,5.9375,307600,5.9375,5.8125,4.331725597381592
08-06-1995,5.75,5.8125,242000,5.8125,5.78125,4.3084330558776855
09-06-1995,5.75,5.78125,652000,5.8125,5.78125,4.3084330558776855
12-06-1995,5.71875,5.78125,188000,5.78125,5.75,4.285146713256836
13-06-1995,5.6875,5.6875,119200,5.71875,5.71875,4.261857509613037
14-06-1995,5.71875,5.78125,300400,5.78125,5.78125,4.3084330558776855
15-06-1995,5.71875,5.75,186800,5.8125,5.8125,4.331725597381592
16-06-1995,5.6875,5.8125,190000,5.8125,5.6875,4.238568305969238
19-06-1995,5.59375,5.65625,399600,5.71875,5.6875,4.238568305969238
20-06-1995,5.34375,5.71875,788000,5.71875,5.34375,3.9823906421661377
21-06-1995,5.1875,5.34375,494400,5.34375,5.21875,3.889237642288208
22-06-1995,5.0625,5.21875,762800,5.21875,5.15625,3.842658519744873
23-06-1995,5.1875,5.1875,2558400,5.34375,5.3125,3.9591012001037598
26-06-1995,5.25,5.28125,352400,5.375,5.34375,3.9823906421661377
27-06-1995,5.3125,5.3125,496800,5.4375,5.40625,4.02896785736084
28-06-1995,5.21875,5.375,1011200,5.375,5.25,3.912525177001953
29-06-1995,5.1875,5.25,250400,5.25,5.1875,3.8659446239471436
30-06-1995,5.21875,5.21875,653600,5.4375,5.4375,4.052255630493164
03-07-1995,5.34375,5.40625,317600,5.46875,5.46875,4.075545310974121
05-07-1995,5.28125,5.4375,124000,5.4375,5.28125,3.93581485748291
06-07-1995,5.21875,5.25,680800,5.28125,5.25,3.912525177001953
07-07-1995,5.21875,5.25,272400,5.25,5.25,3.912525177001953
10-07-1995,5.125,5.28125,638400,5.3125,5.125,3.8193700313568115
11-07-1995,5.0,5.125,582000,5.28125,5.15625,3.842658519744873
12-07-1995,5.1875,5.1875,335600,5.28125,5.25,3.9182252883911133
13-07-1995,5.21875,5.375,817600,5.4375,5.21875,3.8949034214019775
14-07-1995,5.15625,5.25,286000,5.28125,5.1875,3.8715767860412598
17-07-1995,5.15625,5.1875,460400,5.25,5.21875,3.8949034214019775
18-07-1995,5.21875,5.21875,77600,5.28125,5.28125,3.941546678543091
19-07-1995,5.1875,5.25,132000,5.28125,5.25,3.9182252883911133
20-07-1995,5.25,5.25,379200,5.375,5.28125,3.941546678543091
21-07-1995,5.21875,5.28125,248000,5.375,5.34375,3.988192081451416
24-07-1995,5.3125,5.3125,176400,5.40625,5.375,4.011514663696289
25-07-1995,5.40625,5.40625,344000,5.46875,5.4375,4.058159828186035
26-07-1995,5.34375,5.40625,244000,5.40625,5.34375,3.988192081451416
27-07-1995,5.21875,5.28125,758000,5.375,5.28125,3.941546678543091
28-07-1995,5.25,5.3125,111600,5.375,5.375,4.011514663696289
31-07-1995,5.34375,5.34375,217200,5.4375,5.40625,4.03483772277832
01-08-1995,5.1875,5.375,532800,5.375,5.21875,3.8949034214019775
02-08-1995,5.1875,5.21875,302000,5.25,5.21875,3.8949034214019775
03-08-1995,5.125,5.1875,552400,5.34375,5.34375,3.988192081451416
04-08-1995,5.28125,5.34375,558800,5.34375,5.34375,3.988192081451416
07-08-1995,5.34375,5.375,101600,5.40625,5.375,4.011514663696289
08-08-1995,5.34375,5.40625,305200,5.4375,5.34375,3.988192081451416
09-08-1995,5.3125,5.40625,703200,5.40625,5.3125,3.9648685455322266
10-08-1995,5.1875,5.3125,166000,5.34375,5.1875,3.8715767860412598
11-08-1995,5.15625,5.15625,349600,5.3125,5.3125,3.9648685455322266
14-08-1995,5.25,5.34375,134400,5.34375,5.25,3.9182252883911133
15-08-1995,5.25,5.3125,108800,5.34375,5.25,3.9182252883911133
16-08-1995,5.125,5.21875,242000,5.21875,5.21875,3.8949034214019775
17-08-1995,5.1875,5.1875,371600,5.3125,5.28125,3.941546678543091
18-08-1995,5.28125,5.28125,542400,5.5,5.40625,4.03483772277832
21-08-1995,5.40625,5.46875,575600,5.5,5.40625,4.03483772277832
22-08-1995,5.4375,5.4375,362400,5.53125,5.53125,4.128129482269287
23-08-1995,5.5625,5.5625,317600,5.71875,5.625,4.198099136352539
24-08-1995,5.46875,5.59375,2007200,5.625,5.5,4.104804992675781
25-08-1995,5.5,5.5,160000,5.53125,5.5,4.104804992675781
28-08-1995,5.46875,5.5,280000,5.5625,5.53125,4.128129482269287
29-08-1995,5.5,5.53125,56400,5.5625,5.53125,4.128129482269287
30-08-1995,5.625,5.625,290400,5.65625,5.65625,4.221421241760254
31-08-1995,5.6875,5.6875,116800,5.84375,5.8125,4.3380351066589355
01-09-1995,5.84375,5.84375,431200,5.96875,5.96875,4.454648971557617
05-09-1995,5.90625,5.96875,545200,6.03125,6.03125,4.501294136047363
06-09-1995,5.90625,5.96875,415600,6.0,6.0,4.477968215942383
07-09-1995,5.78125,6.0,284000,6.03125,6.03125,4.501294136047363
08-09-1995,5.9375,6.03125,248000,6.09375,5.9375,4.431327819824219
11-09-1995,5.9375,5.96875,230800,6.03125,6.03125,4.501294136047363
12-09-1995,5.90625,6.0,312400,6.15625,6.15625,4.5945844650268555
13-09-1995,6.03125,6.125,547600,6.125,6.0625,4.524616718292236
14-09-1995,5.9375,6.03125,348000,6.09375,6.09375,4.547938346862793
15-09-1995,6.0625,6.0625,221200,6.1875,6.1875,4.6179046630859375
18-09-1995,6.125,6.15625,490000,6.34375,6.21875,4.641230583190918
19-09-1995,6.0,6.15625,504800,6.1875,6.15625,4.5945844650268555
20-09-1995,6.0,6.125,284800,6.125,6.0,4.477968215942383
21-09-1995,5.9375,6.0625,451200,6.0625,6.03125,4.501294136047363
22-09-1995,5.78125,6.03125,143600,6.03125,5.875,4.384680271148682
25-09-1995,5.75,5.84375,183200,5.84375,5.78125,4.314708232879639
26-09-1995,5.65625,5.78125,232000,5.78125,5.65625,4.221421241760254
27-09-1995,5.625,5.6875,229200,5.75,5.75,4.291386604309082
28-09-1995,5.625,5.8125,263600,5.96875,5.625,4.198099136352539
29-09-1995,5.4375,5.59375,635600,5.59375,5.4375,4.058159828186035
02-10-1995,5.4375,5.46875,548400,5.6875,5.59375,4.174777030944824
03-10-1995,5.5625,5.5625,304400,5.6875,5.65625,4.221421241760254
04-10-1995,5.5625,5.625,230800,5.65625,5.65625,4.221421241760254
05-10-1995,5.5,5.625,76800,5.625,5.53125,4.128129482269287
06-10-1995,5.5,5.5,259200,5.5625,5.5625,4.151450157165527
09-10-1995,5.5,5.59375,48000,5.59375,5.5,4.104804992675781
10-10-1995,5.375,5.46875,109600,5.46875,5.375,4.011514663696289
11-10-1995,5.34375,5.375,166000,5.40625,5.34375,3.988192081451416
12-10-1995,5.34375,5.375,620000,5.5625,5.5,4.110574245452881
13-10-1995,5.5,5.5,227200,5.59375,5.53125,4.133930206298828
16-10-1995,5.40625,5.53125,188800,5.53125,5.46875,4.087218761444092
17-10-1995,5.40625,5.4375,398400,5.5,5.5,4.110574245452881
18-10-1995,5.25,5.4375,1966400,5.46875,5.25,3.923732042312622
19-10-1995,5.21875,5.21875,1503600,5.3125,5.21875,3.9003772735595703
20-10-1995,5.125,5.25,333600,5.25,5.125,3.830308437347412
23-10-1995,5.0,5.15625,608000,5.15625,5.0,3.736886978149414
24-10-1995,4.90625,5.0,1186800,5.0,4.9375,3.690176486968994
25-10-1995,4.71875,4.9375,658400,4.9375,4.71875,3.52668833732605
26-10-1995,4.6875,4.75,439600,4.8125,4.71875,3.52668833732605
27-10-1995,4.71875,4.71875,352000,4.875,4.875,3.6434645652770996
30-10-1995,4.9375,4.9375,646800,5.0,4.96875,3.713531732559204
31-10-1995,4.96875,5.0,314800,5.03125,5.0,3.736886978149414
01-11-1995,5.0,5.0,390800,5.03125,5.0,3.736886978149414
02-11-1995,4.9375,4.96875,42800,5.0,4.9375,3.690176486968994
03-11-1995,4.875,4.875,165600,4.96875,4.96875,3.713531732559204
06-11-1995,4.90625,4.96875,63600,4.96875,4.90625,3.6668200492858887
07-11-1995,4.9375,4.9375,476400,5.03125,5.03125,3.7602427005767822
08-11-1995,4.875,4.96875,907200,5.0,5.0,3.736886978149414
09-11-1995,5.03125,5.09375,1176400,5.15625,5.03125,3.7602427005767822
10-11-1995,4.90625,5.03125,550000,5.03125,4.90625,3.6668200492858887
13-11-1995,4.9375,4.96875,446800,5.09375,5.09375,3.8069536685943604
14-11-1995,4.9375,5.03125,1045600,5.0625,4.96875,3.713531732559204
15-11-1995,4.96875,4.96875,228000,5.03125,5.0,3.736886978149414
16-11-1995,5.03125,5.03125,1046400,5.4375,5.375,4.017152309417725
17-11-1995,5.375,5.40625,906800,5.40625,5.40625,4.0405097007751465
20-11-1995,5.1875,5.40625,585600,5.40625,5.1875,3.877018451690674
21-11-1995,5.1875,5.21875,363200,5.375,5.34375,3.993797779083252
22-11-1995,5.34375,5.375,432800,5.40625,5.40625,4.0405097007751465
24-11-1995,5.3125,5.40625,229200,5.40625,5.3125,3.970442295074463
27-11-1995,5.125,5.21875,851200,5.21875,5.1875,3.877018451690674
28-11-1995,5.1875,5.1875,315200,5.28125,5.25,3.923732042312622
29-11-1995,5.21875,5.28125,28800,5.28125,5.21875,3.9003772735595703
30-11-1995,5.1875,5.28125,311200,5.28125,5.25,3.923732042312622
01-12-1995,5.25,5.25,308400,5.34375,5.28125,3.9470880031585693
04-12-1995,5.125,5.3125,1056000,5.3125,5.3125,3.970442295074463
05-12-1995,5.3125,5.3125,461200,5.375,5.375,4.017152309417725
06-12-1995,5.40625,5.40625,685200,5.4375,5.4375,4.06386661529541
07-12-1995,5.4375,5.4375,720400,5.5,5.5,4.110574245452881
08-12-1995,5.4375,5.46875,18838800,5.65625,5.65625,4.227352619171143
11-12-1995,5.71875,5.8125,5631200,5.875,5.875,4.390841007232666
12-12-1995,5.8125,5.875,2874000,5.90625,5.875,4.390841007232666
13-12-1995,5.84375,5.875,3176800,6.09375,6.0,4.4842634201049805
14-12-1995,5.90625,6.03125,2280000,6.09375,5.90625,4.4141974449157715
15-12-1995,5.875,6.1875,1721200,6.21875,6.0,4.4842634201049805
18-12-1995,5.8125,5.9375,974000,5.96875,5.96875,4.460906982421875
19-12-1995,5.875,5.96875,876000,6.0625,6.0625,4.530975818634033
20-12-1995,6.03125,6.0625,2001200,6.21875,6.03125,4.5076189041137695
21-12-1995,6.0,6.03125,1896800,6.125,6.03125,4.5076189041137695
22-12-1995,5.9375,6.09375,1115600,6.15625,6.03125,4.5076189041137695
26-12-1995,6.03125,6.09375,490800,6.09375,6.03125,4.5076189041137695
27-12-1995,5.9375,6.03125,582000,6.03125,5.9375,4.4375529289245605
28-12-1995,5.90625,5.90625,1150800,6.15625,6.15625,4.601043701171875
29-12-1995,5.9375,6.1875,677200,6.1875,6.0,4.4842634201049805
02-01-1996,6.03125,6.0625,579600,6.125,6.09375,4.5543317794799805
03-01-1996,5.875,6.125,1148000,6.125,5.96875,4.460906982421875
04-01-1996,5.9375,5.96875,1644000,6.0625,5.96875,4.460906982421875
05-01-1996,5.9375,5.9375,680800,6.09375,6.0625,4.530975818634033
08-01-1996,6.0625,6.0625,779200,6.125,6.125,4.577687740325928
09-01-1996,5.9375,6.15625,948400,6.15625,6.0,4.4842634201049805
10-01-1996,5.84375,6.0,516400,6.03125,5.96875,4.460906982421875
11-01-1996,5.6875,5.8125,1618400,5.8125,5.78125,4.3262128829956055
12-01-1996,5.75,5.75,555200,5.8125,5.8125,4.3495988845825195
15-01-1996,5.75,5.875,1159200,5.875,5.75,4.302825927734375
16-01-1996,5.71875,5.75,1683200,5.8125,5.75,4.302825927734375
17-01-1996,5.59375,5.75,2281600,5.78125,5.75,4.302825927734375
18-01-1996,5.71875,5.75,504000,5.78125,5.78125,4.3262128829956055
19-01-1996,5.75,5.8125,803200,5.84375,5.75,4.302825927734375
22-01-1996,5.78125,5.78125,545600,5.875,5.875,4.396365642547607
23-01-1996,5.78125,5.84375,426400,5.90625,5.78125,4.3262128829956055
24-01-1996,5.78125,5.8125,539600,5.96875,5.875,4.396365642547607
25-01-1996,5.875,5.875,693600,5.96875,5.9375,4.443137168884277
26-01-1996,5.875,5.90625,1880000,5.90625,5.875,4.396365642547607
29-01-1996,5.875,5.90625,1636800,6.0,6.0,4.489906311035156
30-01-1996,5.96875,6.0,970800,6.03125,6.03125,4.513289928436279
31-01-1996,5.96875,6.03125,650000,6.125,6.09375,4.560062885284424
01-02-1996,6.125,6.125,2182400,6.3125,6.21875,4.653600692749023
02-02-1996,6.125,6.15625,1204000,6.25,6.15625,4.6068315505981445
05-02-1996,6.0625,6.09375,923200,6.15625,6.09375,4.560062885284424
06-02-1996,6.03125,6.09375,938400,6.125,6.03125,4.513289928436279
07-02-1996,6.0625,6.09375,838800,6.15625,6.125,4.583446502685547
08-02-1996,6.125,6.125,705600,6.25,6.1875,4.63021183013916
09-02-1996,6.125,6.1875,1770400,6.28125,6.25,4.676986217498779
12-02-1996,6.15625,6.25,4923200,6.65625,6.53125,4.887449741363525
13-02-1996,6.25,6.59375,3442800,6.59375,6.34375,4.747140884399414
14-02-1996,6.375,6.375,1570000,6.625,6.5625,4.910834312438965
15-02-1996,6.53125,6.53125,1637600,6.9375,6.90625,5.168066024780273
16-02-1996,6.65625,7.125,2182000,7.125,6.75,5.051145553588867
20-02-1996,6.5625,6.625,421200,6.71875,6.625,4.957603931427002
21-02-1996,6.53125,6.5625,1553600,6.71875,6.71875,5.027758598327637
22-02-1996,6.59375,6.6875,1300800,6.75,6.6875,5.004373550415039
23-02-1996,6.5625,6.65625,660000,6.75,6.71875,5.027758598327637
26-02-1996,6.5625,6.625,556400,6.65625,6.59375,4.934218883514404
27-02-1996,6.5,6.53125,532800,6.625,6.59375,4.934218883514404
28-02-1996,6.40625,6.59375,2225600,6.71875,6.40625,4.793907642364502
29-02-1996,6.1875,6.4375,956000,6.4375,6.25,4.676986217498779
01-03-1996,6.25,6.25,402800,6.34375,6.25,4.676986217498779
04-03-1996,6.1875,6.25,809200,6.34375,6.3125,4.723756313323975
05-03-1996,6.15625,6.25,574000,6.25,6.25,4.676986217498779
06-03-1996,6.1875,6.21875,830000,6.40625,6.40625,4.793907642364502
07-03-1996,6.3125,6.375,1132000,6.40625,6.375,4.77052640914917
08-03-1996,6.1875,6.1875,278400,6.28125,6.21875,4.653600692749023
11-03-1996,6.09375,6.1875,1366400,6.1875,6.15625,4.6068315505981445
12-03-1996,6.09375,6.125,1108400,6.15625,6.125,4.583446502685547
13-03-1996,6.125,6.125,1038800,6.1875,6.1875,4.63021183013916
14-03-1996,6.25,6.25,2724800,6.40625,6.3125,4.723756313323975
15-03-1996,6.0,6.25,1051600,6.25,6.0625,4.536675453186035
18-03-1996,6.0625,6.09375,4547200,6.375,6.375,4.77052640914917
19-03-1996,6.34375,6.375,473600,6.4375,6.34375,4.747140884399414
20-03-1996,6.1875,6.375,223600,6.375,6.1875,4.63021183013916
21-03-1996,6.125,6.1875,936800,6.28125,6.125,4.583446502685547
22-03-1996,6.09375,6.15625,1019600,6.1875,6.09375,4.560062885284424
25-03-1996,6.0625,6.0625,907200,6.28125,6.28125,4.7003703117370605
26-03-1996,6.25,6.28125,216800,6.3125,6.3125,4.723756313323975
27-03-1996,6.40625,6.5,1842000,6.59375,6.53125,4.887449741363525
28-03-1996,6.53125,6.53125,1270000,6.65625,6.65625,4.980990886688232
29-03-1996,6.5625,6.59375,1343600,6.625,6.59375,4.934218883514404
01-04-1996,6.5625,6.59375,752800,6.6875,6.6875,5.004373550415039
02-04-1996,6.65625,6.71875,1116400,6.875,6.84375,5.121298789978027
03-04-1996,6.71875,6.78125,1519600,6.96875,6.9375,5.1914544105529785
04-04-1996,6.75,6.9375,796800,6.9375,6.875,5.1446852684021
08-04-1996,6.625,6.84375,1262800,6.84375,6.8125,5.097914218902588
09-04-1996,6.8125,6.8125,923200,6.90625,6.875,5.1446852684021
10-04-1996,6.78125,6.8125,1358000,6.96875,6.9375,5.1914544105529785
11-04-1996,6.84375,6.875,932000,6.9375,6.875,5.150253772735596
12-04-1996,6.59375,6.875,1120000,6.875,6.65625,4.986381530761719
15-04-1996,6.5625,6.59375,948000,6.78125,6.75,5.05661153793335
16-04-1996,6.6875,6.78125,846000,6.78125,6.75,5.05661153793335
17-04-1996,6.65625,6.75,1494800,6.75,6.6875,5.009792327880859
18-04-1996,6.5,6.6875,1113200,6.6875,6.53125,4.8927388191223145
19-04-1996,6.5,6.5,884400,6.6875,6.65625,4.986381530761719
22-04-1996,6.65625,6.65625,2457600,6.90625,6.8125,5.1034321784973145
23-04-1996,6.78125,6.9375,1053200,7.0,6.90625,5.1736602783203125
24-04-1996,6.90625,6.90625,1069200,7.15625,7.03125,5.267303466796875
25-04-1996,6.9375,6.96875,536800,7.0,6.9375,5.197072505950928
26-04-1996,6.78125,6.875,486400,6.9375,6.78125,5.080023288726807
29-04-1996,6.71875,6.71875,705200,6.875,6.78125,5.080023288726807
30-04-1996,6.59375,6.8125,779600,6.875,6.625,4.9629693031311035
01-05-1996,6.5,6.625,808400,6.75,6.5,4.869330406188965
02-05-1996,6.46875,6.5625,373600,6.59375,6.5625,4.916147708892822
03-05-1996,6.53125,6.625,680000,6.625,6.625,4.9629693031311035
06-05-1996,6.5625,6.59375,504400,6.65625,6.5625,4.916147708892822
07-05-1996,6.125,6.625,1395600,6.65625,6.21875,4.658637523651123
08-05-1996,6.1875,6.25,620400,6.34375,6.25,4.682048320770264
09-05-1996,6.25,6.25,332000,6.375,6.375,4.775690078735352
10-05-1996,6.25,6.375,818400,6.40625,6.3125,4.728867530822754
13-05-1996,6.21875,6.25,796000,6.3125,6.25,4.682048320770264
14-05-1996,6.15625,6.25,1208800,6.28125,6.15625,4.611817836761475
15-05-1996,6.09375,6.1875,2372400,6.3125,6.3125,4.728867530822754
16-05-1996,6.25,6.34375,379600,6.34375,6.28125,4.70545768737793
17-05-1996,6.1875,6.25,1017600,6.28125,6.25,4.682048320770264
20-05-1996,6.25,6.25,425600,6.375,6.34375,4.752279281616211
21-05-1996,6.3125,6.3125,2660400,6.46875,6.4375,4.822511196136475
22-05-1996,6.4375,6.4375,552000,6.5,6.5,4.869330406188965
23-05-1996,6.53125,6.5625,1154800,6.75,6.5625,4.916147708892822
24-05-1996,6.4375,6.5,1701200,6.53125,6.5,4.869330406188965
28-05-1996,6.359375,6.53125,554000,6.53125,6.4375,4.822511196136475
29-05-1996,6.3125,6.40625,613600,6.40625,6.375,4.775690078735352
30-05-1996,6.25,6.375,604000,6.375,6.3125,4.728867530822754
31-05-1996,6.25,6.34375,493200,6.375,6.3125,4.728867530822754
03-06-1996,6.28125,6.3125,211200,6.3125,6.3125,4.728867530822754
04-06-1996,6.375,6.40625,654800,6.46875,6.375,4.775690078735352
05-06-1996,6.40625,6.4375,679600,6.46875,6.4375,4.822511196136475
06-06-1996,6.25,6.4375,278800,6.4375,6.28125,4.70545768737793
07-06-1996,6.15625,6.21875,702800,6.34375,6.34375,4.752279281616211
10-06-1996,6.3125,6.34375,241200,6.34375,6.3125,4.728867530822754
11-06-1996,6.28125,6.3125,761600,6.375,6.3125,4.728867530822754
12-06-1996,6.25,6.3125,1385200,6.3125,6.28125,4.70545768737793
13-06-1996,6.09375,6.28125,985600,6.28125,6.1875,4.63522481918335
14-06-1996,6.15625,6.1875,1093200,6.21875,6.15625,4.611817836761475
17-06-1996,6.0625,6.09375,586400,6.125,6.0625,4.541584491729736
18-06-1996,5.96875,6.0,1450000,6.125,5.96875,4.471353530883789
19-06-1996,6.03125,6.03125,1416800,6.15625,6.0625,4.541584491729736
20-06-1996,6.0625,6.09375,1258400,6.125,6.09375,4.564997673034668
21-06-1996,6.0,6.09375,650800,6.09375,6.0,4.494765758514404
24-06-1996,5.96875,6.03125,948000,6.0625,6.0,4.494765758514404
25-06-1996,5.96875,6.03125,2754000,6.25,6.15625,4.611817836761475
26-06-1996,6.21875,6.21875,5256400,6.625,6.625,4.9629693031311035
27-06-1996,6.53125,6.59375,4884000,6.75,6.75,5.05661153793335
28-06-1996,6.78125,6.8125,5409200,6.96875,6.96875,5.220481872558594
01-07-1996,6.90625,6.96875,3778800,7.28125,7.28125,5.454586029052734
02-07-1996,7.125,7.15625,2342000,7.25,7.21875,5.4077630043029785
03-07-1996,7.125,7.125,1392000,7.21875,7.21875,5.4077630043029785
05-07-1996,7.125,7.21875,753600,7.3125,7.28125,5.454586029052734
08-07-1996,7.1875,7.25,924800,7.3125,7.25,5.4311723709106445
09-07-1996,7.25,7.25,2440800,7.5625,7.5,5.618457794189453
10-07-1996,7.46875,7.5,3225600,7.65625,7.5625,5.665277004241943
11-07-1996,7.125,7.46875,3954400,7.59375,7.1875,5.389700889587402
12-07-1996,7.125,7.15625,1191200,7.21875,7.15625,5.366267681121826
15-07-1996,7.09375,7.125,1718400,7.34375,7.125,5.342831134796143
16-07-1996,6.5625,7.0625,1854400,7.09375,6.65625,4.991330146789551
17-07-1996,6.6875,6.6875,2270000,6.96875,6.6875,5.014763832092285
18-07-1996,6.65625,6.75,990400,6.8125,6.71875,5.038196086883545
19-07-1996,6.65625,6.6875,1322800,6.71875,6.6875,5.014763832092285
22-07-1996,6.5625,6.6875,1101600,6.6875,6.59375,4.944462299346924
23-07-1996,6.53125,6.625,2303200,6.8125,6.8125,5.108498573303223
24-07-1996,6.625,6.75,327600,6.75,6.625,4.967898368835449
25-07-1996,6.375,6.625,762800,6.78125,6.375,4.780430316925049
26-07-1996,6.40625,6.40625,462800,6.5625,6.53125,4.897597312927246
29-07-1996,6.4375,6.5,676800,6.53125,6.5,4.874159812927246
30-07-1996,6.25,6.46875,1988800,6.53125,6.3125,4.733564376831055
31-07-1996,6.125,6.3125,1733600,6.3125,6.25,4.686696529388428
01-08-1996,6.25,6.25,1422800,6.375,6.3125,4.733564376831055
02-08-1996,6.3125,6.3125,1042800,6.46875,6.46875,4.850729942321777
05-08-1996,6.34375,6.46875,503200,6.59375,6.59375,4.944462299346924
06-08-1996,6.5,6.59375,495200,6.65625,6.65625,4.991330146789551
07-08-1996,6.75,6.75,1542800,6.84375,6.84375,5.131930828094482
08-08-1996,6.75,6.84375,767600,6.875,6.84375,5.131930828094482
09-08-1996,6.71875,6.875,634400,6.875,6.71875,5.038196086883545
12-08-1996,6.625,6.75,167600,6.75,6.625,4.967898368835449
13-08-1996,6.625,6.65625,389600,6.6875,6.625,4.967898368835449
14-08-1996,6.625,6.625,333200,6.65625,6.65625,4.991330146789551
15-08-1996,6.625,6.625,331600,6.75,6.75,5.0616278648376465
16-08-1996,6.625,6.6875,329600,6.71875,6.71875,5.038196086883545
19-08-1996,6.625,6.65625,339200,6.78125,6.78125,5.085063934326172
20-08-1996,6.6875,6.8125,928800,6.8125,6.75,5.0616278648376465
21-08-1996,6.59375,6.71875,837600,6.71875,6.65625,4.991330146789551
22-08-1996,6.59375,6.65625,433200,6.6875,6.65625,4.991330146789551
23-08-1996,6.5625,6.59375,228800,6.65625,6.625,4.967898368835449
26-08-1996,6.5625,6.625,488000,6.65625,6.65625,4.991330146789551
27-08-1996,6.5,6.625,669600,6.625,6.5,4.874159812927246
28-08-1996,6.46875,6.5,392800,6.5,6.46875,4.850729942321777
29-08-1996,6.4375,6.46875,499200,6.5,6.46875,4.850729942321777
30-08-1996,6.375,6.4375,160800,6.46875,6.46875,4.850729942321777
03-09-1996,6.5,6.5,1298800,6.59375,6.5625,4.921028137207031
04-09-1996,6.40625,6.53125,356400,6.53125,6.46875,4.850729942321777
05-09-1996,6.375,6.4375,382800,6.5,6.4375,4.827297687530518
06-09-1996,6.3125,6.4375,2431600,6.59375,6.46875,4.850729942321777
09-09-1996,6.40625,6.46875,501200,6.53125,6.5,4.874159812927246
10-09-1996,6.46875,6.5,488400,6.53125,6.46875,4.850729942321777
11-09-1996,6.46875,6.46875,1305600,6.65625,6.5625,4.921028137207031
12-09-1996,6.28125,6.53125,1240800,6.53125,6.3125,4.733564376831055
13-09-1996,6.125,6.3125,1250400,6.3125,6.125,4.592960357666016
16-09-1996,6.03125,6.125,1839600,6.125,6.0625,4.546093940734863
17-09-1996,5.71875,5.875,3505600,5.9375,5.875,4.405494689941406
18-09-1996,5.875,5.90625,2286800,6.09375,6.0,4.49922513961792
19-09-1996,5.96875,5.96875,2160800,6.09375,6.03125,4.522659778594971
20-09-1996,6.03125,6.03125,601200,6.09375,6.03125,4.522659778594971
23-09-1996,6.0,6.0625,1021600,6.0625,6.03125,4.522659778594971
24-09-1996,5.84375,6.0,1552000,6.0625,5.90625,4.428927421569824
25-09-1996,5.78125,5.90625,1691200,6.0,6.0,4.49922513961792
26-09-1996,6.03125,6.03125,856400,6.15625,6.125,4.592960357666016
27-09-1996,6.0,6.0625,1036000,6.09375,6.03125,4.522659778594971
30-09-1996,6.0,6.0,1134400,6.21875,6.21875,4.663260459899902
01-10-1996,6.25,6.25,956400,6.3125,6.3125,4.733564376831055
02-10-1996,6.28125,6.3125,774800,6.40625,6.375,4.780430316925049
03-10-1996,6.28125,6.375,691600,6.375,6.28125,4.710128307342529
04-10-1996,6.28125,6.34375,592000,6.40625,6.28125,4.710128307342529
07-10-1996,6.25,6.28125,1552000,6.4375,6.40625,4.803864002227783
08-10-1996,6.34375,6.40625,1220000,6.46875,6.375,4.780430316925049
09-10-1996,6.25,6.375,772800,6.375,6.3125,4.733564376831055
10-10-1996,5.9375,6.21875,2254800,6.21875,6.0,4.504578590393066
11-10-1996,5.9375,6.0,1258800,6.0625,5.9375,4.457657337188721
14-10-1996,5.8125,5.9375,2306000,5.96875,5.84375,4.387275218963623
15-10-1996,5.84375,5.875,1424800,6.0,6.0,4.504578590393066
16-10-1996,5.96875,6.0,1880000,6.09375,6.09375,4.574960231781006
17-10-1996,6.125,6.15625,1636400,6.25,6.25,4.692269802093506
18-10-1996,6.21875,6.25,1060800,6.40625,6.375,4.786114692687988
21-10-1996,6.25,6.34375,722000,6.375,6.25,4.692269802093506
22-10-1996,6.15625,6.25,1494400,6.3125,6.1875,4.645345211029053
23-10-1996,5.96875,6.15625,2842800,6.15625,6.0,4.504578590393066
24-10-1996,6.0,6.03125,1593200,6.09375,6.0625,4.551501274108887
25-10-1996,6.09375,6.09375,1020000,6.21875,6.21875,4.668808937072754
28-10-1996,6.09375,6.15625,995600,6.1875,6.09375,4.574960231781006
29-10-1996,6.03125,6.09375,1533600,6.15625,6.15625,4.621884822845459
30-10-1996,6.15625,6.15625,3300400,6.375,6.375,4.786114692687988
31-10-1996,6.375,6.375,1713200,6.53125,6.4375,4.833040237426758
01-11-1996,6.25,6.4375,1226800,6.46875,6.28125,4.715730667114258
04-11-1996,6.1875,6.25,1135200,6.28125,6.1875,4.645345211029053
05-11-1996,6.1875,6.25,730800,6.25,6.21875,4.668808937072754
06-11-1996,6.125,6.21875,395600,6.21875,6.125,4.598423480987549
07-11-1996,6.0,6.0,1647200,6.0625,6.0,4.504578590393066
08-11-1996,6.0,6.0625,1212400,6.15625,6.15625,4.621884822845459
11-11-1996,6.15625,6.1875,1075600,6.28125,6.25,4.692269802093506
12-11-1996,6.25,6.3125,1186400,6.375,6.25,4.692269802093506
13-11-1996,6.25,6.28125,1387200,6.28125,6.28125,4.715730667114258
14-11-1996,6.28125,6.28125,2227200,6.3125,6.3125,4.739193439483643
15-11-1996,6.21875,6.28125,1321600,6.34375,6.25,4.692269802093506
18-11-1996,6.1875,6.25,682000,6.25,6.25,4.692269802093506
19-11-1996,6.21875,6.25,2281600,6.40625,6.40625,4.8095784187316895
20-11-1996,6.5625,6.75,3805200,6.78125,6.78125,5.091113090515137
