Date,Low,Open,Volume,High,Close,Adjusted Close
17-03-1980,1.6796879768371582,0.0,164800,1.75,1.6875,0.5723941326141357
18-03-1980,1.6328129768371582,0.0,188800,1.6875,1.65625,0.5617939829826355
19-03-1980,1.6640629768371582,0.0,84800,1.6875,1.6796879768371582,0.5697439312934875
20-03-1980,1.6484379768371582,0.0,328000,1.6875,1.6875,0.5723941326141357
21-03-1980,1.6640629768371582,0.0,249600,1.6796879768371582,1.6640629768371582,0.564444363117218
24-03-1980,1.640625,0.0,142400,1.6796879768371582,1.6796879768371582,0.5697439312934875
25-03-1980,1.6640629768371582,0.0,249600,1.6875,1.6640629768371582,0.564444363117218
26-03-1980,1.6484379768371582,0.0,228800,1.6875,1.65625,0.5617939829826355
27-03-1980,1.640625,0.0,268800,1.65625,1.6484379768371582,0.5591442584991455
28-03-1980,1.6484379768371582,0.0,132800,1.671875,1.65625,0.5617939829826355
31-03-1980,1.671875,0.0,363200,1.796875,1.796875,0.6094937324523926
01-04-1980,1.75,0.0,276800,1.8046879768371582,1.765625,0.5988938808441162
02-04-1980,1.7109379768371582,0.0,86400,1.765625,1.7109379768371582,0.5803437829017639
03-04-1980,1.6953129768371582,0.0,156800,1.7265629768371582,1.71875,0.5829939842224121
07-04-1980,1.6875,0.0,195200,1.71875,1.6953129768371582,0.5750441551208496
08-04-1980,1.6875,0.0,414400,1.71875,1.7109379768371582,0.5803437829017639
09-04-1980,1.6796879768371582,0.0,432000,1.7109379768371582,1.6875,0.5723941326141357
10-04-1980,1.6796879768371582,0.0,544000,1.703125,1.6875,0.5723941326141357
11-04-1980,1.6953129768371582,0.0,372800,1.734375,1.734375,0.5882939696311951
14-04-1980,1.7265629768371582,0.0,107200,1.75,1.734375,0.5882939696311951
15-04-1980,1.7265629768371582,0.0,110400,1.75,1.7265629768371582,0.5856440663337708
16-04-1980,1.734375,0.0,316800,1.75,1.734375,0.5882939696311951
17-04-1980,1.734375,0.0,108800,1.75,1.734375,0.5882939696311951
18-04-1980,1.734375,0.0,96000,1.75,1.7421879768371582,0.5909438729286194
21-04-1980,1.734375,0.0,128000,1.7421879768371582,1.734375,0.5882939696311951
22-04-1980,1.7265629768371582,0.0,99200,1.765625,1.765625,0.5988938808441162
23-04-1980,1.765625,0.0,123200,1.796875,1.765625,0.5988938808441162
24-04-1980,1.78125,0.0,152000,1.8125,1.7890629768371582,0.6068437099456787
25-04-1980,1.7734379768371582,0.0,67200,1.8125,1.8046879768371582,0.6121442317962646
28-04-1980,1.765625,0.0,361600,1.8046879768371582,1.78125,0.6041936874389648
29-04-1980,1.7890629768371582,0.0,164800,1.8359379768371582,1.8125,0.6147940754890442
30-04-1980,1.796875,0.0,152000,1.84375,1.8359379768371582,0.6227439045906067
01-05-1980,1.8203129768371582,0.0,312000,1.8671879768371582,1.859375,0.6306939125061035
02-05-1980,1.875,0.0,476800,1.953125,1.9453129768371582,0.6598432660102844
05-05-1980,1.90625,0.0,828800,1.9296879768371582,1.9296879768371582,0.654543399810791
06-05-1980,1.8828129768371582,0.0,216000,1.90625,1.8828129768371582,0.638643741607666
07-05-1980,1.8671879768371582,0.0,209600,1.90625,1.890625,0.6412937045097351
08-05-1980,1.8984379768371582,0.0,158400,1.9140629768371582,1.8984379768371582,0.6439430713653564
09-05-1980,1.8671879768371582,0.0,129600,1.8984379768371582,1.8671879768371582,0.633343517780304
12-05-1980,1.8671879768371582,0.0,190400,1.875,1.8671879768371582,0.633343517780304
13-05-1980,1.859375,0.0,70400,1.875,1.875,0.6359935402870178
14-05-1980,1.859375,0.0,129600,1.875,1.875,0.6359935402870178
15-05-1980,1.8125,0.0,240000,1.875,1.859375,0.6306939125061035
16-05-1980,1.765625,0.0,120000,1.84375,1.765625,0.5988938808441162
19-05-1980,1.765625,0.0,148800,1.7890629768371582,1.7890629768371582,0.6068437099456787
20-05-1980,1.7890629768371582,0.0,158400,1.8359379768371582,1.8359379768371582,0.6227439045906067
21-05-1980,1.8203129768371582,0.0,532800,1.8671879768371582,1.8359379768371582,0.6227439045906067
22-05-1980,1.796875,0.0,571200,1.828125,1.828125,0.6200937032699585
23-05-1980,1.796875,0.0,224000,1.828125,1.828125,0.6200937032699585
27-05-1980,1.8125,0.0,316800,1.8671879768371582,1.828125,0.6200937032699585
28-05-1980,1.8359379768371582,0.0,542400,1.8671879768371582,1.8671879768371582,0.633343517780304
29-05-1980,1.8515629768371582,0.0,187200,1.875,1.8515629768371582,0.6280438899993896
30-05-1980,1.84375,0.0,227200,1.890625,1.890625,0.6412937045097351
02-06-1980,1.875,0.0,192000,1.90625,1.890625,0.6412937045097351
03-06-1980,1.90625,0.0,320000,1.953125,1.921875,0.6518931984901428
04-06-1980,1.921875,0.0,123200,1.953125,1.9296879768371582,0.654543399810791
05-06-1980,1.9375,0.0,467200,2.0,1.96875,0.6677931547164917
06-06-1980,1.9375,0.0,120000,1.96875,1.9375,0.6571934819221497
09-06-1980,1.9296879768371582,0.0,83200,1.953125,1.9375,0.6571934819221497
10-06-1980,1.953125,0.0,203200,1.9921879768371582,1.9921879768371582,0.6757432818412781
11-06-1980,1.9765629768371582,0.0,70400,1.9921879768371582,1.9921879768371582,0.6757432818412781
12-06-1980,1.9609379768371582,0.0,128000,1.984375,1.96875,0.6677931547164917
13-06-1980,1.953125,0.0,176000,1.984375,1.984375,0.6730931997299194
16-06-1980,1.953125,0.0,251200,1.984375,1.9765629768371582,0.6704432964324951
17-06-1980,1.953125,0.0,155200,1.9765629768371582,1.953125,0.6624933481216431
18-06-1980,1.9453129768371582,0.0,147200,1.9609379768371582,1.9609379768371582,0.6651431322097778
19-06-1980,1.9375,0.0,187200,1.9609379768371582,1.9375,0.6571934819221497
20-06-1980,1.9375,0.0,300800,1.9609379768371582,1.953125,0.6624933481216431
23-06-1980,1.9375,0.0,128000,1.953125,1.9375,0.6571934819221497
24-06-1980,1.9375,0.0,452800,1.953125,1.9375,0.6571934819221497
25-06-1980,1.9375,0.0,142400,1.9609379768371582,1.9609379768371582,0.6651431322097778
26-06-1980,1.9296879768371582,0.0,152000,1.953125,1.9375,0.6571934819221497
27-06-1980,1.9296879768371582,0.0,737600,1.9375,1.9375,0.6571934819221497
30-06-1980,1.84375,0.0,265600,1.9375,1.875,0.6359935402870178
01-07-1980,1.84375,0.0,1777600,1.890625,1.890625,0.6412937045097351
02-07-1980,1.875,0.0,489600,1.890625,1.8828129768371582,0.638643741607666
03-07-1980,1.890625,0.0,136000,1.921875,1.8984379768371582,0.6439430713653564
07-07-1980,1.9140629768371582,0.0,193600,1.9375,1.921875,0.6518931984901428
08-07-1980,1.9375,0.0,206400,1.953125,1.953125,0.6624933481216431
09-07-1980,1.9375,0.0,321600,1.9921879768371582,1.9921879768371582,0.6757432818412781
10-07-1980,1.96875,0.0,627200,2.023437976837158,2.0,0.6783930659294128
11-07-1980,1.984375,0.0,158400,2.015625,2.015625,0.6836932301521301
14-07-1980,2.0,0.0,190400,2.054687976837158,2.054687976837158,0.6969431042671204
15-07-1980,2.046875,0.0,291200,2.078125,2.070312976837158,0.7022430300712585
16-07-1980,2.046875,0.0,859200,2.070312976837158,2.070312976837158,0.7022430300712585
17-07-1980,2.0625,0.0,480000,2.085937976837158,2.078125,0.7048927545547485
18-07-1980,2.070312976837158,0.0,652800,2.148437976837158,2.132812976837158,0.723442554473877
21-07-1980,2.132812976837158,0.0,268800,2.15625,2.15625,0.7313928008079529
22-07-1980,2.148437976837158,0.0,350400,2.171875,2.148437976837158,0.7287425994873047
23-07-1980,2.125,0.0,280000,2.15625,2.125,0.7207930088043213
24-07-1980,2.125,0.0,332800,2.140625,2.140625,0.7260924577713013
25-07-1980,2.125,0.0,121600,2.140625,2.132812976837158,0.723442554473877
28-07-1980,2.125,0.0,355200,2.140625,2.140625,0.7260924577713013
29-07-1980,2.132812976837158,0.0,188800,2.171875,2.171875,0.7366925477981567
30-07-1980,2.1875,0.0,1552000,2.195312976837158,2.195312976837158,0.7446424961090088
31-07-1980,2.1875,0.0,1233600,2.210937976837158,2.210937976837158,0.7499421238899231
01-08-1980,2.21875,0.0,305600,2.234375,2.226562976837158,0.755242645740509
04-08-1980,2.21875,0.0,1603200,2.273437976837158,2.273437976837158,0.7711424827575684
05-08-1980,2.226562976837158,0.0,1168000,2.265625,2.25,0.7631925344467163
06-08-1980,2.242187976837158,0.0,254400,2.289062976837158,2.289062976837158,0.7764420509338379
07-08-1980,2.25,0.0,276800,2.273437976837158,2.257812976837158,0.7658425569534302
08-08-1980,2.257812976837158,0.0,598400,2.28125,2.273437976837158,0.7711424827575684
11-08-1980,2.25,0.0,259200,2.257812976837158,2.257812976837158,0.7658425569534302
12-08-1980,2.25,0.0,1137600,2.3125,2.273437976837158,0.7711424827575684
13-08-1980,2.257812976837158,0.0,140800,2.296875,2.265625,0.7684921026229858
14-08-1980,2.25,0.0,126400,2.265625,2.265625,0.7684921026229858
15-08-1980,2.257812976837158,0.0,195200,2.289062976837158,2.257812976837158,0.7658425569534302
18-08-1980,2.203125,0.0,299200,2.25,2.203125,0.7472928166389465
19-08-1980,2.171875,0.0,622400,2.203125,2.179687976837158,0.7393425107002258
20-08-1980,2.148437976837158,0.0,259200,2.195312976837158,2.195312976837158,0.7446424961090088
21-08-1980,2.25,0.0,745600,2.28125,2.265625,0.7684921026229858
22-08-1980,2.257812976837158,0.0,195200,2.28125,2.265625,0.7684921026229858
25-08-1980,2.25,0.0,91200,2.265625,2.25,0.7631925344467163
26-08-1980,2.25,0.0,254400,2.28125,2.265625,0.7684921026229858
27-08-1980,2.21875,0.0,336000,2.257812976837158,2.21875,0.7525922656059265
28-08-1980,2.171875,0.0,212800,2.203125,2.171875,0.7366925477981567
29-08-1980,2.15625,0.0,740800,2.1875,2.171875,0.7366925477981567
02-09-1980,2.171875,0.0,155200,2.195312976837158,2.1875,0.7419925332069397
03-09-1980,2.171875,0.0,1081600,2.265625,2.25,0.7631925344467163
04-09-1980,2.234375,0.0,416000,2.273437976837158,2.25,0.7631925344467163
05-09-1980,2.234375,0.0,731200,2.257812976837158,2.257812976837158,0.7658425569534302
08-09-1980,2.242187976837158,0.0,100800,2.265625,2.242187976837158,0.7605425119400024
09-09-1980,2.234375,0.0,91200,2.242187976837158,2.242187976837158,0.7605425119400024
10-09-1980,2.234375,0.0,83200,2.242187976837158,2.234375,0.7578923106193542
11-09-1980,2.234375,0.0,60800,2.25,2.25,0.7631925344467163
12-09-1980,2.242187976837158,0.0,128000,2.265625,2.265625,0.7684921026229858
15-09-1980,2.25,0.0,236800,2.273437976837158,2.25,0.7631925344467163
16-09-1980,2.25,0.0,96000,2.265625,2.265625,0.7684921026229858
17-09-1980,2.25,0.0,1672000,2.335937976837158,2.328125,0.7896919250488281
18-09-1980,2.335937976837158,0.0,201600,2.367187976837158,2.34375,0.7949919104576111
19-09-1980,2.335937976837158,0.0,124800,2.351562976837158,2.34375,0.7949919104576111
22-09-1980,2.34375,0.0,264000,2.359375,2.351562976837158,0.7976416349411011
23-09-1980,2.335937976837158,0.0,488000,2.375,2.351562976837158,0.7976416349411011
24-09-1980,2.328125,0.0,148800,2.335937976837158,2.328125,0.7896919250488281
25-09-1980,2.296875,0.0,265600,2.328125,2.304687976837158,0.7817425727844238
26-09-1980,2.273437976837158,0.0,352000,2.304687976837158,2.289062976837158,0.7764420509338379
29-09-1980,2.265625,0.0,428800,2.28125,2.28125,0.7737922072410583
30-09-1980,2.265625,0.0,124800,2.289062976837158,2.289062976837158,0.7764420509338379
01-10-1980,2.257812976837158,0.0,100800,2.28125,2.257812976837158,0.7658425569534302
02-10-1980,2.25,0.0,585600,2.273437976837158,2.273437976837158,0.7711424827575684
03-10-1980,2.265625,0.0,180800,2.289062976837158,2.28125,0.7737922072410583
06-10-1980,2.265625,0.0,121600,2.296875,2.265625,0.7684921026229858
07-10-1980,2.25,0.0,459200,2.265625,2.25,0.7631925344467163
08-10-1980,2.242187976837158,0.0,817600,2.28125,2.28125,0.7737922072410583
09-10-1980,2.25,0.0,443200,2.28125,2.265625,0.7684921026229858
10-10-1980,2.203125,0.0,796800,2.234375,2.226562976837158,0.755242645740509
13-10-1980,2.210937976837158,0.0,97600,2.226562976837158,2.226562976837158,0.755242645740509
14-10-1980,2.203125,0.0,224000,2.25,2.203125,0.7472928166389465
15-10-1980,2.1875,0.0,113600,2.203125,2.195312976837158,0.7446424961090088
16-10-1980,2.171875,0.0,425600,2.203125,2.1875,0.7419925332069397
17-10-1980,2.15625,0.0,300800,2.1875,2.1875,0.7419925332069397
20-10-1980,2.164062976837158,0.0,150400,2.1875,2.1875,0.7419925332069397
21-10-1980,2.1875,0.0,566400,2.25,2.25,0.7631925344467163
22-10-1980,2.210937976837158,0.0,172800,2.273437976837158,2.234375,0.7578923106193542
23-10-1980,2.234375,0.0,336000,2.265625,2.25,0.7631925344467163
24-10-1980,2.234375,0.0,168000,2.265625,2.265625,0.7684921026229858
27-10-1980,2.234375,0.0,521600,2.25,2.25,0.7631925344467163
28-10-1980,2.234375,0.0,376000,2.265625,2.257812976837158,0.7658425569534302
29-10-1980,2.25,0.0,251200,2.265625,2.265625,0.7684921026229858
30-10-1980,2.257812976837158,0.0,156800,2.273437976837158,2.265625,0.7684921026229858
31-10-1980,2.25,0.0,243200,2.265625,2.265625,0.7684921026229858
03-11-1980,2.226562976837158,0.0,1062400,2.28125,2.28125,0.7737922072410583
05-11-1980,2.273437976837158,0.0,1062400,2.359375,2.28125,0.7737922072410583
06-11-1980,2.28125,0.0,531200,2.3125,2.296875,0.779092013835907
07-11-1980,2.28125,0.0,579200,2.296875,2.28125,0.7737922072410583
10-11-1980,2.257812976837158,0.0,180800,2.28125,2.273437976837158,0.7711424827575684
11-11-1980,2.265625,0.0,867200,2.28125,2.265625,0.7684921026229858
12-11-1980,2.25,0.0,281600,2.28125,2.273437976837158,0.7711424827575684
13-11-1980,2.257812976837158,0.0,1980800,2.28125,2.273437976837158,0.7711424827575684
14-11-1980,2.273437976837158,0.0,702400,2.304687976837158,2.304687976837158,0.7817425727844238
17-11-1980,2.289062976837158,0.0,1176000,2.34375,2.328125,0.7896919250488281
18-11-1980,2.328125,0.0,164800,2.351562976837158,2.335937976837158,0.7923420071601868
19-11-1980,2.320312976837158,0.0,241600,2.367187976837158,2.359375,0.8002917766571045
20-11-1980,2.34375,0.0,377600,2.421875,2.398437976837158,0.8135419487953186
21-11-1980,2.3125,0.0,209600,2.398437976837158,2.359375,0.8002917766571045
24-11-1980,2.296875,0.0,243200,2.382812976837158,2.34375,0.7949919104576111
25-11-1980,2.296875,0.0,179200,2.351562976837158,2.3125,0.7843919992446899
26-11-1980,2.195312976837158,0.0,377600,2.265625,2.203125,0.7472928166389465
28-11-1980,2.171875,0.0,323200,2.203125,2.1875,0.7419925332069397
01-12-1980,2.179687976837158,0.0,152000,2.203125,2.1875,0.7419925332069397
02-12-1980,2.171875,0.0,244800,2.203125,2.203125,0.7472928166389465
03-12-1980,2.1875,0.0,182400,2.25,2.25,0.7631925344467163
04-12-1980,2.21875,0.0,643200,2.265625,2.25,0.7631925344467163
05-12-1980,2.234375,0.0,235200,2.25,2.242187976837158,0.7605425119400024
08-12-1980,2.1875,0.0,385600,2.21875,2.203125,0.7472928166389465
09-12-1980,2.1875,0.0,528000,2.203125,2.1875,0.7419925332069397
10-12-1980,2.1875,0.0,206400,2.234375,2.195312976837158,0.7446424961090088
11-12-1980,2.15625,0.0,456000,2.203125,2.15625,0.7313928008079529
12-12-1980,2.148437976837158,0.0,57600,2.171875,2.15625,0.7313928008079529
15-12-1980,2.117187976837158,0.0,472000,2.148437976837158,2.117187976837158,0.718142569065094
16-12-1980,2.046875,0.0,131200,2.101562976837158,2.0625,0.6995928883552551
17-12-1980,2.070312976837158,0.0,276800,2.101562976837158,2.085937976837158,0.7075425982475281
18-12-1980,2.0625,0.0,168000,2.078125,2.070312976837158,0.7022430300712585
19-12-1980,2.0625,0.0,504000,2.140625,2.140625,0.7260924577713013
22-12-1980,2.125,0.0,384000,2.164062976837158,2.164062976837158,0.7340429425239563
23-12-1980,2.140625,0.0,184000,2.1875,2.15625,0.7313928008079529
24-12-1980,2.132812976837158,0.0,1203200,2.242187976837158,2.242187976837158,0.7605425119400024
26-12-1980,2.226562976837158,0.0,97600,2.265625,2.25,0.7631925344467163
29-12-1980,2.234375,0.0,324800,2.304687976837158,2.265625,0.7684921026229858
30-12-1980,2.234375,0.0,1240000,2.328125,2.328125,0.7896919250488281
31-12-1980,2.320312976837158,0.0,928000,2.546875,2.546875,0.8638908863067627
02-01-1981,2.5,0.0,483200,2.546875,2.546875,0.8638908863067627
05-01-1981,2.5,0.0,1252800,2.601562976837158,2.515625,0.8532913327217102
06-01-1981,2.40625,0.0,296000,2.5,2.421875,0.8214914798736572
07-01-1981,2.25,0.0,540800,2.375,2.359375,0.8002917766571045
08-01-1981,2.21875,0.0,680000,2.367187976837158,2.296875,0.779092013835907
09-01-1981,2.289062976837158,0.0,1307200,2.398437976837158,2.398437976837158,0.8135419487953186
12-01-1981,2.4375,0.0,1108800,2.554687976837158,2.53125,0.8585913777351379
13-01-1981,2.5,0.0,276800,2.53125,2.515625,0.8532913327217102
14-01-1981,2.5,0.0,1025600,2.578125,2.523437976837158,0.8559412360191345
15-01-1981,2.5,0.0,310400,2.53125,2.515625,0.8532913327217102
16-01-1981,2.507812976837158,0.0,820800,2.640625,2.640625,0.8956908583641052
19-01-1981,2.578125,0.0,768000,2.65625,2.625,0.890390932559967
20-01-1981,2.640625,0.0,822400,2.671875,2.664062976837158,0.903640866279602
21-01-1981,2.625,0.0,2556800,2.703125,2.6875,0.9115907549858093
22-01-1981,2.609375,0.0,1601600,2.765625,2.640625,0.8956908583641052
23-01-1981,2.578125,0.0,1859200,2.640625,2.625,0.890390932559967
26-01-1981,2.5625,0.0,329600,2.601562976837158,2.5625,0.8691909313201904
27-01-1981,2.5625,0.0,753600,2.59375,2.585937976837158,0.877140998840332
28-01-1981,2.578125,0.0,358400,2.648437976837158,2.625,0.890390932559967
29-01-1981,2.625,0.0,262400,2.6875,2.65625,0.9009904861450195
30-01-1981,2.640625,0.0,358400,2.695312976837158,2.664062976837158,0.903640866279602
02-02-1981,2.578125,0.0,187200,2.648437976837158,2.59375,0.8797906041145325
03-02-1981,2.578125,0.0,313600,2.640625,2.625,0.890390932559967
04-02-1981,2.570312976837158,0.0,601600,2.65625,2.578125,0.8744909763336182
05-02-1981,2.570312976837158,0.0,201600,2.625,2.625,0.890390932559967
06-02-1981,2.625,0.0,532800,2.71875,2.710937976837158,0.9195406436920166
09-02-1981,2.664062976837158,0.0,464000,2.71875,2.703125,0.9168906807899475
10-02-1981,2.6875,0.0,472000,2.71875,2.703125,0.9168906807899475
11-02-1981,2.65625,0.0,617600,2.703125,2.6875,0.9115907549858093
12-02-1981,2.625,0.0,196800,2.679687976837158,2.679687976837158,0.9089406728744507
13-02-1981,2.609375,0.0,156800,2.671875,2.640625,0.8956908583641052
17-02-1981,2.601562976837158,0.0,345600,2.65625,2.609375,0.8850905895233154
18-02-1981,2.5625,0.0,428800,2.640625,2.59375,0.8797906041145325
19-02-1981,2.53125,0.0,601600,2.59375,2.546875,0.8638908863067627
20-02-1981,2.539062976837158,0.0,329600,2.554687976837158,2.546875,0.8638908863067627
23-02-1981,2.546875,0.0,427200,2.585937976837158,2.585937976837158,0.877140998840332
24-02-1981,2.59375,0.0,334400,2.632812976837158,2.625,0.890390932559967
25-02-1981,2.609375,0.0,4424000,2.9375,2.9375,0.9963899254798889
26-02-1981,2.875,0.0,5041600,3.09375,3.046875,1.033489465713501
27-02-1981,2.992187976837158,0.0,3398400,3.15625,3.15625,1.0705888271331787
02-03-1981,3.140625,0.0,3272000,3.234375,3.210937976837158,1.089138388633728
03-03-1981,3.09375,0.0,3803200,3.234375,3.148437976837158,1.0679391622543335
04-03-1981,3.0625,0.0,1982400,3.125,3.125,1.0599889755249023
05-03-1981,2.984375,0.0,1225600,3.117187976837158,3.0,1.0175902843475342
06-03-1981,2.890625,0.0,1899200,3.039062976837158,3.03125,1.0281896591186523
09-03-1981,2.96875,0.0,712000,3.0625,3.0625,1.038788914680481
10-03-1981,2.9375,0.0,497600,3.046875,2.960937976837158,1.0043405294418335
11-03-1981,2.914062976837158,0.0,1625600,2.984375,2.96875,1.0069897174835205
12-03-1981,2.9375,0.0,1329600,3.09375,3.078125,1.044089674949646
13-03-1981,3.09375,0.0,1672000,3.140625,3.125,1.0599889755249023
16-03-1981,3.0625,0.0,566400,3.140625,3.109375,1.054689645767212
17-03-1981,3.117187976837158,0.0,2062400,3.1875,3.164062976837158,1.0732392072677612
18-03-1981,3.125,0.0,1782400,3.296875,3.21875,1.091788649559021
19-03-1981,3.171875,0.0,648000,3.265625,3.171875,1.0758885145187378
20-03-1981,3.15625,0.0,884800,3.25,3.195312976837158,1.083838939666748
23-03-1981,3.171875,0.0,368000,3.234375,3.21875,1.091788649559021
24-03-1981,3.125,0.0,760000,3.25,3.179687976837158,1.0785390138626099
25-03-1981,3.171875,0.0,6833600,3.492187976837158,3.453125,1.1712875366210938
26-03-1981,3.34375,0.0,2190400,3.46875,3.34375,1.134188175201416
27-03-1981,3.328125,0.0,1571200,3.460937976837158,3.390625,1.1500880718231201
30-03-1981,3.28125,0.0,1011200,3.398437976837158,3.28125,1.1129883527755737
31-03-1981,3.328125,0.0,1208000,3.398437976837158,3.382812976837158,1.1474381685256958
01-04-1981,3.335937976837158,0.0,1326400,3.4375,3.40625,1.1553876399993896
02-04-1981,3.28125,0.0,723200,3.421875,3.359375,1.139487624168396
03-04-1981,3.28125,0.0,817600,3.367187976837158,3.296875,1.118288516998291
06-04-1981,3.3125,0.0,2217600,3.609375,3.609375,1.2242881059646606
07-04-1981,3.515625,0.0,2635200,3.640625,3.546875,1.2030872106552124
08-04-1981,3.46875,0.0,968000,3.585937976837158,3.484375,1.1818872690200806
09-04-1981,3.46875,0.0,2723200,3.5625,3.515625,1.1924875974655151
10-04-1981,3.46875,0.0,1227200,3.5625,3.5625,1.2083873748779297
13-04-1981,3.5625,0.0,1553600,3.609375,3.578125,1.2136870622634888
14-04-1981,3.484375,0.0,555200,3.5625,3.5,1.1871873140335083
15-04-1981,3.4375,0.0,665600,3.507812976837158,3.492187976837158,1.1845382452011108
16-04-1981,3.476562976837158,0.0,716800,3.523437976837158,3.523437976837158,1.195137619972229
20-04-1981,3.492187976837158,0.0,400000,3.53125,3.515625,1.1924875974655151
21-04-1981,3.296875,0.0,1460800,3.523437976837158,3.296875,1.118288516998291
22-04-1981,3.28125,0.0,824000,3.367187976837158,3.320312976837158,1.1262383460998535
23-04-1981,3.3125,0.0,907200,3.421875,3.382812976837158,1.1474381685256958
24-04-1981,3.34375,0.0,995200,3.421875,3.40625,1.1553876399993896
27-04-1981,3.375,0.0,1088000,3.453125,3.40625,1.1553876399993896
28-04-1981,3.234375,0.0,592000,3.390625,3.289062976837158,1.1156378984451294
29-04-1981,3.15625,0.0,633600,3.25,3.179687976837158,1.0785390138626099
30-04-1981,3.164062976837158,0.0,756800,3.210937976837158,3.1875,1.0811892747879028
01-05-1981,3.171875,0.0,1225600,3.296875,3.25,1.1023879051208496
04-05-1981,3.171875,0.0,536000,3.25,3.195312976837158,1.083838939666748
05-05-1981,3.09375,0.0,937600,3.140625,3.101562976837158,1.0520398616790771
06-05-1981,3.109375,0.0,716800,3.15625,3.117187976837158,1.0573389530181885
07-05-1981,3.109375,0.0,876800,3.203125,3.1875,1.0811892747879028
08-05-1981,3.164062976837158,0.0,827200,3.203125,3.1875,1.0811892747879028
11-05-1981,3.101562976837158,0.0,372800,3.210937976837158,3.101562976837158,1.0520398616790771
12-05-1981,3.0625,0.0,782400,3.109375,3.078125,1.044089674949646
13-05-1981,3.046875,0.0,374400,3.125,3.09375,1.0493897199630737
14-05-1981,3.078125,0.0,1054400,3.203125,3.125,1.0599889755249023
15-05-1981,3.109375,0.0,748800,3.15625,3.140625,1.0652893781661987
18-05-1981,3.117187976837158,0.0,348800,3.148437976837158,3.132812976837158,1.0626392364501953
19-05-1981,3.125,0.0,654400,3.203125,3.1875,1.0811892747879028
20-05-1981,3.203125,0.0,1464000,3.40625,3.398437976837158,1.1527379751205444
21-05-1981,3.320312976837158,0.0,801600,3.398437976837158,3.375,1.1447882652282715
22-05-1981,3.296875,0.0,388800,3.367187976837158,3.328125,1.1288883686065674
26-05-1981,3.289062976837158,0.0,444800,3.328125,3.328125,1.1288883686065674
27-05-1981,3.265625,0.0,400000,3.359375,3.273437976837158,1.110339641571045
28-05-1981,3.234375,0.0,273600,3.296875,3.234375,1.0970885753631592
29-05-1981,3.171875,0.0,212800,3.21875,3.203125,1.0864886045455933
01-06-1981,3.140625,0.0,1132800,3.242187976837158,3.140625,1.0652893781661987
02-06-1981,3.0,0.0,675200,3.125,3.0625,1.038788914680481
03-06-1981,2.9375,0.0,411200,3.046875,2.960937976837158,1.0043405294418335
04-06-1981,2.945312976837158,0.0,344000,2.976562976837158,2.96875,1.0069897174835205
05-06-1981,2.921875,0.0,1054400,3.039062976837158,3.03125,1.0281896591186523
08-06-1981,3.015625,0.0,347200,3.078125,3.03125,1.0281896591186523
09-06-1981,3.0,0.0,750400,3.078125,3.046875,1.033489465713501
10-06-1981,3.0,0.0,369600,3.085937976837158,3.0625,1.038788914680481
11-06-1981,3.078125,0.0,139200,3.15625,3.15625,1.0705888271331787
12-06-1981,3.085937976837158,0.0,171200,3.140625,3.09375,1.0493897199630737
15-06-1981,3.078125,0.0,233600,3.140625,3.140625,1.0652893781661987
16-06-1981,3.101562976837158,0.0,150400,3.132812976837158,3.109375,1.054689645767212
17-06-1981,3.054687976837158,0.0,256000,3.09375,3.078125,1.044089674949646
18-06-1981,3.007812976837158,0.0,185600,3.078125,3.015625,1.022889494895935
19-06-1981,2.9375,0.0,196800,3.0,2.953125,1.0016895532608032
22-06-1981,2.9375,0.0,363200,2.984375,2.960937976837158,1.0043405294418335
23-06-1981,2.945312976837158,0.0,195200,2.992187976837158,2.96875,1.0069897174835205
24-06-1981,2.90625,0.0,224000,2.976562976837158,2.9375,0.9963899254798889
25-06-1981,2.921875,0.0,192000,2.960937976837158,2.9375,0.9963899254798889
26-06-1981,2.828125,0.0,332800,2.929687976837158,2.875,0.9751903414726257
29-06-1981,2.875,0.0,454400,2.921875,2.914062976837158,0.9884403944015503
30-06-1981,2.914062976837158,0.0,284800,2.960937976837158,2.9375,0.9963899254798889
01-07-1981,2.921875,0.0,190400,2.953125,2.945312976837158,0.9990397095680237
02-07-1981,2.921875,0.0,67200,2.953125,2.9375,0.9963899254798889
06-07-1981,2.890625,0.0,198400,2.929687976837158,2.90625,0.9857892990112305
07-07-1981,2.796875,0.0,302400,2.898437976837158,2.804687976837158,0.9513399004936218
08-07-1981,2.742187976837158,0.0,870400,2.8125,2.765625,0.9380893707275391
09-07-1981,2.71875,0.0,662400,2.75,2.75,0.9327899813652039
10-07-1981,2.710937976837158,0.0,360000,2.757812976837158,2.71875,0.9221905469894409
13-07-1981,2.6875,0.0,428800,2.726562976837158,2.695312976837158,0.9142405390739441
14-07-1981,2.6875,0.0,577600,2.710937976837158,2.703125,0.9168906807899475
15-07-1981,2.695312976837158,0.0,2560000,2.875,2.796875,0.9486904740333557
16-07-1981,2.796875,0.0,1044800,2.835937976837158,2.835937976837158,0.9619404673576355
17-07-1981,2.828125,0.0,542400,2.898437976837158,2.84375,0.9645900130271912
20-07-1981,2.75,0.0,889600,2.84375,2.765625,0.9380893707275391
21-07-1981,2.742187976837158,0.0,651200,2.8125,2.742187976837158,0.9301405549049377
22-07-1981,2.703125,0.0,379200,2.765625,2.703125,0.9168906807899475
23-07-1981,2.671875,0.0,664000,2.757812976837158,2.726562976837158,0.9248403310775757
24-07-1981,2.71875,0.0,174400,2.765625,2.75,0.9327899813652039
27-07-1981,2.71875,0.0,350400,2.78125,2.71875,0.9221905469894409
28-07-1981,2.703125,0.0,1201600,2.78125,2.78125,0.9433901309967041
29-07-1981,2.78125,0.0,1441600,2.835937976837158,2.796875,0.9486904740333557
30-07-1981,2.773437976837158,0.0,329600,2.820312976837158,2.789062976837158,0.9460410475730896
31-07-1981,2.78125,0.0,241600,2.8125,2.78125,0.9433901309967041
03-08-1981,2.773437976837158,0.0,460800,2.8125,2.796875,0.9486904740333557
04-08-1981,2.757812976837158,0.0,310400,2.8125,2.796875,0.9486904740333557
05-08-1981,2.796875,0.0,454400,2.890625,2.890625,0.9804899096488953
06-08-1981,2.859375,0.0,1337600,2.945312976837158,2.875,0.9751903414726257
07-08-1981,2.835937976837158,0.0,129600,2.890625,2.851562976837158,0.967240571975708
10-08-1981,2.835937976837158,0.0,798400,2.875,2.875,0.9751903414726257
11-08-1981,2.890625,0.0,822400,2.96875,2.953125,1.0016895532608032
12-08-1981,2.875,0.0,324800,2.984375,2.882812976837158,0.9778398275375366
13-08-1981,2.835937976837158,0.0,112000,2.875,2.859375,0.9698903560638428
14-08-1981,2.851562976837158,0.0,268800,2.929687976837158,2.90625,0.9857892990112305
17-08-1981,2.851562976837158,0.0,265600,2.921875,2.882812976837158,0.9778398275375366
18-08-1981,2.8125,0.0,1198400,2.882812976837158,2.835937976837158,0.9619404673576355
19-08-1981,2.828125,0.0,326400,2.859375,2.859375,0.9698903560638428
20-08-1981,2.851562976837158,0.0,166400,2.867187976837158,2.851562976837158,0.967240571975708
21-08-1981,2.828125,0.0,675200,2.859375,2.835937976837158,0.9619404673576355
24-08-1981,2.828125,0.0,747200,2.851562976837158,2.851562976837158,0.967240571975708
25-08-1981,2.835937976837158,0.0,464000,2.898437976837158,2.882812976837158,0.9778398275375366
26-08-1981,2.867187976837158,0.0,120000,2.890625,2.867187976837158,0.972540557384491
27-08-1981,2.867187976837158,0.0,112000,2.875,2.867187976837158,0.972540557384491
28-08-1981,2.867187976837158,0.0,248000,2.875,2.867187976837158,0.972540557384491
31-08-1981,2.859375,0.0,196800,2.867187976837158,2.859375,0.9698903560638428
01-09-1981,2.867187976837158,0.0,342400,2.875,2.867187976837158,0.972540557384491
02-09-1981,2.875,0.0,153600,2.898437976837158,2.882812976837158,0.9778398275375366
03-09-1981,2.859375,0.0,315200,2.890625,2.859375,0.9698903560638428
04-09-1981,2.796875,0.0,465600,2.84375,2.8125,0.9539898633956909
08-09-1981,2.65625,0.0,449600,2.789062976837158,2.695312976837158,0.9142405390739441
09-09-1981,2.664062976837158,0.0,278400,2.703125,2.6875,0.9115907549858093
10-09-1981,2.6875,0.0,217600,2.757812976837158,2.726562976837158,0.9248403310775757
11-09-1981,2.6875,0.0,230400,2.726562976837158,2.703125,0.9168906807899475
14-09-1981,2.695312976837158,0.0,393600,2.71875,2.710937976837158,0.9195406436920166
15-09-1981,2.703125,0.0,355200,2.75,2.703125,0.9168906807899475
16-09-1981,2.703125,0.0,403200,2.734375,2.734375,0.9274901747703552
17-09-1981,2.710937976837158,0.0,89600,2.734375,2.710937976837158,0.9195406436920166
18-09-1981,2.632812976837158,0.0,1006400,2.703125,2.640625,0.8956908583641052
21-09-1981,2.640625,0.0,283200,2.648437976837158,2.648437976837158,0.8983409404754639
22-09-1981,2.632812976837158,0.0,240000,2.648437976837158,2.648437976837158,0.8983409404754639
23-09-1981,2.59375,0.0,523200,2.625,2.609375,0.8850905895233154
24-09-1981,2.578125,0.0,484800,2.640625,2.59375,0.8797906041145325
25-09-1981,2.460937976837158,0.0,366400,2.59375,2.46875,0.837391197681427
28-09-1981,2.390625,0.0,694400,2.546875,2.546875,0.8638908863067627
29-09-1981,2.5625,0.0,737600,2.625,2.5625,0.8691909313201904
30-09-1981,2.5,0.0,313600,2.554687976837158,2.515625,0.8532913327217102
01-10-1981,2.453125,0.0,964800,2.523437976837158,2.492187976837158,0.8453410863876343
02-10-1981,2.476562976837158,0.0,2206400,2.523437976837158,2.523437976837158,0.8559412360191345
05-10-1981,2.476562976837158,0.0,516800,2.53125,2.492187976837158,0.8453410863876343
06-10-1981,2.421875,0.0,513600,2.492187976837158,2.4375,0.8267917037010193
07-10-1981,2.40625,0.0,182400,2.4375,2.421875,0.8214914798736572
08-10-1981,2.40625,0.0,644800,2.460937976837158,2.453125,0.8320913314819336
09-10-1981,2.421875,0.0,329600,2.453125,2.4375,0.8267917037010193
12-10-1981,2.414062976837158,0.0,387200,2.4375,2.4375,0.8267917037010193
13-10-1981,2.421875,0.0,110400,2.445312976837158,2.429687976837158,0.8241416215896606
14-10-1981,2.421875,0.0,70400,2.4375,2.421875,0.8214914798736572
15-10-1981,2.421875,0.0,132800,2.4375,2.429687976837158,0.8241416215896606
16-10-1981,2.429687976837158,0.0,1144000,2.453125,2.429687976837158,0.8241416215896606
19-10-1981,2.414062976837158,0.0,216000,2.445312976837158,2.445312976837158,0.8294417262077332
20-10-1981,2.390625,0.0,1475200,2.421875,2.390625,0.8108919858932495
21-10-1981,2.375,0.0,419200,2.414062976837158,2.390625,0.8108919858932495
22-10-1981,2.3125,0.0,283200,2.382812976837158,2.34375,0.7949919104576111
23-10-1981,2.289062976837158,0.0,372800,2.359375,2.296875,0.779092013835907
26-10-1981,2.289062976837158,0.0,108800,2.328125,2.304687976837158,0.7817425727844238
27-10-1981,2.304687976837158,0.0,153600,2.367187976837158,2.351562976837158,0.7976416349411011
28-10-1981,2.351562976837158,0.0,648000,2.421875,2.382812976837158,0.8082416653633118
29-10-1981,2.351562976837158,0.0,318400,2.382812976837158,2.359375,0.8002917766571045
30-10-1981,2.351562976837158,0.0,491200,2.390625,2.390625,0.8108919858932495
02-11-1981,2.414062976837158,0.0,1241600,2.46875,2.4375,0.8267917037010193
03-11-1981,2.445312976837158,0.0,411200,2.53125,2.53125,0.8585913777351379
04-11-1981,2.5,0.0,1062400,2.53125,2.507812976837158,0.8506407737731934
05-11-1981,2.507812976837158,0.0,451200,2.5625,2.546875,0.8638908863067627
06-11-1981,2.515625,0.0,161600,2.570312976837158,2.5625,0.8691909313201904
09-11-1981,2.539062976837158,0.0,91200,2.570312976837158,2.570312976837158,0.8718417286872864
10-11-1981,2.59375,0.0,137600,2.617187976837158,2.59375,0.8797906041145325
11-11-1981,2.59375,0.0,331200,2.617187976837158,2.617187976837158,0.8877407908439636
12-11-1981,2.59375,0.0,236800,2.640625,2.609375,0.8850905895233154
13-11-1981,2.53125,0.0,358400,2.59375,2.554687976837158,0.86654132604599
16-11-1981,2.453125,0.0,284800,2.53125,2.476562976837158,0.8400415182113647
17-11-1981,2.46875,0.0,500800,2.5,2.492187976837158,0.8453410863876343
18-11-1981,2.46875,0.0,926400,2.5,2.46875,0.837391197681427
19-11-1981,2.460937976837158,0.0,518400,2.484375,2.476562976837158,0.8400415182113647
20-11-1981,2.476562976837158,0.0,86400,2.5,2.5,0.8479905724525452
23-11-1981,2.445312976837158,0.0,190400,2.492187976837158,2.460937976837158,0.8347419500350952
24-11-1981,2.445312976837158,0.0,150400,2.46875,2.460937976837158,0.8347419500350952
25-11-1981,2.445312976837158,0.0,1275200,2.484375,2.453125,0.8320913314819336
27-11-1981,2.453125,0.0,196800,2.476562976837158,2.476562976837158,0.8400415182113647
30-11-1981,2.460937976837158,0.0,275200,2.53125,2.515625,0.8532913327217102
01-12-1981,2.453125,0.0,657600,2.523437976837158,2.484375,0.8426908850669861
02-12-1981,2.445312976837158,0.0,364800,2.507812976837158,2.484375,0.8426908850669861
03-12-1981,2.476562976837158,0.0,422400,2.515625,2.515625,0.8532913327217102
04-12-1981,2.5,0.0,1816000,2.53125,2.515625,0.8532913327217102
07-12-1981,2.46875,0.0,400000,2.53125,2.492187976837158,0.8453410863876343
08-12-1981,2.460937976837158,0.0,201600,2.492187976837158,2.46875,0.837391197681427
09-12-1981,2.460937976837158,0.0,347200,2.492187976837158,2.484375,0.8426908850669861
10-12-1981,2.460937976837158,0.0,403200,2.5,2.492187976837158,0.8453410863876343
11-12-1981,2.484375,0.0,281600,2.515625,2.515625,0.8532913327217102
14-12-1981,2.4375,0.0,860800,2.492187976837158,2.453125,0.8320913314819336
15-12-1981,2.390625,0.0,264000,2.453125,2.445312976837158,0.8294417262077332
16-12-1981,2.4375,0.0,113600,2.453125,2.445312976837158,0.8294417262077332
17-12-1981,2.4375,0.0,363200,2.453125,2.4375,0.8267917037010193
18-12-1981,2.421875,0.0,209600,2.445312976837158,2.421875,0.8214914798736572
21-12-1981,2.375,0.0,670400,2.4375,2.375,0.8055920600891113
22-12-1981,2.359375,0.0,240000,2.390625,2.375,0.8055920600891113
23-12-1981,2.351562976837158,0.0,388800,2.382812976837158,2.375,0.8055920600891113
24-12-1981,2.367187976837158,0.0,520000,2.382812976837158,2.382812976837158,0.8082416653633118
28-12-1981,2.3125,0.0,1014400,2.375,2.3125,0.7843919992446899
29-12-1981,2.3125,0.0,248000,2.328125,2.3125,0.7843919992446899
30-12-1981,2.3125,0.0,195200,2.335937976837158,2.328125,0.7896919250488281
31-12-1981,2.21875,0.0,580800,2.375,2.359375,0.8002917766571045
04-01-1982,2.335937976837158,0.0,728000,2.367187976837158,2.367187976837158,0.8029419779777527
05-01-1982,2.296875,0.0,278400,2.359375,2.328125,0.7896919250488281
06-01-1982,2.289062976837158,0.0,336000,2.328125,2.328125,0.7896919250488281
07-01-1982,2.28125,0.0,408000,2.335937976837158,2.296875,0.779092013835907
08-01-1982,2.257812976837158,0.0,228800,2.3125,2.265625,0.7684921026229858
11-01-1982,2.1875,0.0,5382400,2.265625,2.1875,0.7419925332069397
12-01-1982,2.15625,0.0,358400,2.210937976837158,2.203125,0.7472928166389465
13-01-1982,2.171875,0.0,507200,2.21875,2.1875,0.7419925332069397
14-01-1982,2.15625,0.0,177600,2.179687976837158,2.179687976837158,0.7393425107002258
15-01-1982,2.140625,0.0,291200,2.1875,2.15625,0.7313928008079529
18-01-1982,2.0,0.0,10244800,2.132812976837158,2.0625,0.6995928883552551
19-01-1982,2.039062976837158,0.0,312000,2.085937976837158,2.054687976837158,0.6969431042671204
20-01-1982,2.023437976837158,0.0,492800,2.0625,2.046875,0.6942928433418274
21-01-1982,2.023437976837158,0.0,321600,2.046875,2.046875,0.6942928433418274
22-01-1982,2.0,0.0,1499200,2.03125,2.03125,0.6889926791191101
25-01-1982,2.0,0.0,403200,2.03125,2.015625,0.6836932301521301
26-01-1982,1.96875,0.0,1643200,2.015625,2.0,0.6783930659294128
27-01-1982,1.9921879768371582,0.0,345600,2.007812976837158,2.007812976837158,0.6810433268547058
28-01-1982,1.9921879768371582,0.0,492800,2.039062976837158,2.039062976837158,0.6916429996490479
29-01-1982,2.0625,0.0,1184000,2.09375,2.085937976837158,0.7075425982475281
01-02-1982,2.03125,0.0,243200,2.078125,2.046875,0.6942928433418274
02-02-1982,2.007812976837158,0.0,283200,2.0625,2.0625,0.6995928883552551
03-02-1982,2.039062976837158,0.0,523200,2.070312976837158,2.070312976837158,0.7022430300712585
04-02-1982,2.046875,0.0,222400,2.078125,2.078125,0.7048927545547485
05-02-1982,2.070312976837158,0.0,353600,2.148437976837158,2.148437976837158,0.7287425994873047
08-02-1982,2.078125,0.0,721600,2.125,2.078125,0.7048927545547485
09-02-1982,2.015625,0.0,203200,2.046875,2.039062976837158,0.6916429996490479
10-02-1982,2.015625,0.0,596800,2.039062976837158,2.039062976837158,0.6916429996490479
11-02-1982,1.9296879768371582,0.0,480000,2.039062976837158,1.953125,0.6624933481216431
12-02-1982,1.9375,0.0,304000,1.9765629768371582,1.9765629768371582,0.6704432964324951
16-02-1982,1.9375,0.0,512000,1.984375,1.984375,0.6730931997299194
17-02-1982,1.9609379768371582,0.0,233600,2.0,1.9765629768371582,0.6704432964324951
18-02-1982,1.9375,0.0,363200,1.9765629768371582,1.9765629768371582,0.6704432964324951
19-02-1982,1.9453129768371582,0.0,192000,1.984375,1.96875,0.6677931547164917
22-02-1982,1.9375,0.0,1331200,2.023437976837158,1.9453129768371582,0.6598432660102844
23-02-1982,1.9453129768371582,0.0,182400,1.96875,1.9609379768371582,0.6651431322097778
24-02-1982,1.921875,0.0,2142400,1.9609379768371582,1.953125,0.6624933481216431
25-02-1982,1.953125,0.0,889600,1.9765629768371582,1.953125,0.6624933481216431
26-02-1982,1.9453129768371582,0.0,939200,1.96875,1.9609379768371582,0.6651431322097778
01-03-1982,1.9375,0.0,419200,1.96875,1.9375,0.6571934819221497
02-03-1982,1.921875,0.0,336000,1.953125,1.9296879768371582,0.654543399810791
03-03-1982,1.890625,0.0,409600,1.9296879768371582,1.90625,0.6465935111045837
04-03-1982,1.8828129768371582,0.0,235200,1.921875,1.890625,0.6412937045097351
05-03-1982,1.875,0.0,265600,1.90625,1.875,0.6359935402870178
08-03-1982,1.84375,0.0,560000,1.8828129768371582,1.84375,0.6253935694694519
09-03-1982,1.8125,0.0,1928000,1.8515629768371582,1.828125,0.6200937032699585
10-03-1982,1.8203129768371582,0.0,656000,1.859375,1.859375,0.6306939125061035
11-03-1982,1.84375,0.0,712000,1.9375,1.9375,0.6571934819221497
12-03-1982,1.90625,0.0,336000,1.9609379768371582,1.9609379768371582,0.6651431322097778
15-03-1982,1.9453129768371582,0.0,176000,2.0,1.9921879768371582,0.6757432818412781
16-03-1982,1.9765629768371582,0.0,998400,2.007812976837158,2.007812976837158,0.6810433268547058
17-03-1982,1.96875,0.0,952000,2.023437976837158,2.0,0.6783930659294128
18-03-1982,1.9375,0.0,616000,2.0,1.96875,0.6677931547164917
19-03-1982,1.9375,0.0,812800,1.96875,1.96875,0.6677931547164917
22-03-1982,1.9375,0.0,342400,1.96875,1.9609379768371582,0.6651431322097778
23-03-1982,1.9609379768371582,0.0,1097600,2.015625,1.9921879768371582,0.6757432818412781
24-03-1982,2.0,0.0,291200,2.03125,2.015625,0.6836932301521301
25-03-1982,1.96875,0.0,1993600,2.0,1.9921879768371582,0.6757432818412781
26-03-1982,1.953125,0.0,265600,1.9921879768371582,1.9609379768371582,0.6651431322097778
29-03-1982,1.9609379768371582,0.0,44800,1.984375,1.984375,0.6730931997299194
30-03-1982,1.9765629768371582,0.0,248000,2.007812976837158,1.9921879768371582,0.6757432818412781
31-03-1982,1.96875,0.0,72000,1.984375,1.9765629768371582,0.6704432964324951
01-04-1982,1.96875,0.0,228800,2.0,2.0,0.6783930659294128
02-04-1982,1.9765629768371582,0.0,385600,2.015625,2.007812976837158,0.6810433268547058
05-04-1982,2.0,0.0,372800,2.03125,2.007812976837158,0.6810433268547058
06-04-1982,2.007812976837158,0.0,211200,2.023437976837158,2.015625,0.6836932301521301
07-04-1982,2.007812976837158,0.0,254400,2.03125,2.03125,0.6889926791191101
08-04-1982,2.015625,0.0,155200,2.046875,2.023437976837158,0.6863430738449097
12-04-1982,2.007812976837158,0.0,131200,2.039062976837158,2.023437976837158,0.6863430738449097
13-04-1982,2.023437976837158,0.0,312000,2.046875,2.039062976837158,0.6916429996490479
14-04-1982,2.023437976837158,0.0,408000,2.054687976837158,2.054687976837158,0.6969431042671204
15-04-1982,2.0,0.0,2214400,2.054687976837158,2.007812976837158,0.6810433268547058
16-04-1982,1.984375,0.0,672000,2.015625,2.0,0.6783930659294128
19-04-1982,1.9921879768371582,0.0,412800,2.015625,2.015625,0.6836932301521301
20-04-1982,2.0,0.0,228800,2.015625,2.015625,0.6836932301521301
21-04-1982,2.0,0.0,352000,2.03125,2.015625,0.6836932301521301
22-04-1982,2.0,0.0,467200,2.03125,2.015625,0.6836932301521301
23-04-1982,2.007812976837158,0.0,787200,2.054687976837158,2.054687976837158,0.6969431042671204
26-04-1982,2.070312976837158,0.0,516800,2.117187976837158,2.117187976837158,0.718142569065094
27-04-1982,2.109375,0.0,404800,2.15625,2.117187976837158,0.718142569065094
28-04-1982,2.117187976837158,0.0,116800,2.148437976837158,2.125,0.7207930088043213
29-04-1982,2.078125,0.0,249600,2.125,2.085937976837158,0.7075425982475281
30-04-1982,2.046875,0.0,862400,2.132812976837158,2.132812976837158,0.723442554473877
03-05-1982,2.09375,0.0,3374400,2.164062976837158,2.15625,0.7313928008079529
04-05-1982,2.101562976837158,0.0,3448000,2.15625,2.117187976837158,0.718142569065094
05-05-1982,2.09375,0.0,745600,2.140625,2.117187976837158,0.718142569065094
06-05-1982,2.101562976837158,0.0,491200,2.140625,2.109375,0.7154926061630249
07-05-1982,2.09375,0.0,235200,2.125,2.109375,0.7154926061630249
10-05-1982,2.09375,0.0,78400,2.125,2.101562976837158,0.7128428220748901
11-05-1982,2.101562976837158,0.0,164800,2.140625,2.132812976837158,0.723442554473877
12-05-1982,2.117187976837158,0.0,316800,2.171875,2.140625,0.7260924577713013
13-05-1982,2.0625,0.0,2137600,2.148437976837158,2.078125,0.7048927545547485
14-05-1982,2.0625,0.0,3348800,2.109375,2.109375,0.7154926061630249
17-05-1982,2.09375,0.0,280000,2.125,2.109375,0.7154926061630249
18-05-1982,2.101562976837158,0.0,369600,2.125,2.109375,0.7154926061630249
19-05-1982,2.109375,0.0,539200,2.15625,2.125,0.7207930088043213
20-05-1982,2.101562976837158,0.0,315200,2.140625,2.140625,0.7260924577713013
21-05-1982,2.09375,0.0,737600,2.140625,2.125,0.7207930088043213
24-05-1982,2.09375,0.0,81600,2.125,2.101562976837158,0.7128428220748901
25-05-1982,2.070312976837158,0.0,195200,2.109375,2.085937976837158,0.7075425982475281
26-05-1982,2.070312976837158,0.0,376000,2.09375,2.070312976837158,0.7022430300712585
27-05-1982,2.015625,0.0,241600,2.070312976837158,2.070312976837158,0.7022430300712585
28-05-1982,2.054687976837158,0.0,100800,2.085937976837158,2.078125,0.7048927545547485
01-06-1982,1.96875,0.0,196800,2.085937976837158,1.984375,0.6730931997299194
02-06-1982,1.984375,0.0,427200,2.03125,2.03125,0.6889926791191101
03-06-1982,2.0,0.0,928000,2.078125,2.015625,0.6836932301521301
04-06-1982,1.921875,0.0,1617600,2.0,1.9375,0.6571934819221497
07-06-1982,1.9140629768371582,0.0,307200,1.953125,1.921875,0.6518931984901428
08-06-1982,1.890625,0.0,337600,1.921875,1.8984379768371582,0.6439430713653564
09-06-1982,1.828125,0.0,2569600,1.890625,1.8359379768371582,0.6227439045906067
10-06-1982,1.8203129768371582,0.0,107200,1.875,1.8671879768371582,0.633343517780304
11-06-1982,1.8984379768371582,0.0,646400,1.9140629768371582,1.9140629768371582,0.6492434740066528
14-06-1982,1.890625,0.0,726400,1.921875,1.921875,0.6518931984901428
15-06-1982,1.890625,0.0,846400,1.921875,1.921875,0.6518931984901428
16-06-1982,1.921875,0.0,409600,1.9453129768371582,1.9375,0.6571934819221497
17-06-1982,1.90625,0.0,161600,1.9296879768371582,1.9296879768371582,0.654543399810791
18-06-1982,1.90625,0.0,121600,1.9453129768371582,1.921875,0.6518931984901428
21-06-1982,1.8828129768371582,0.0,140800,1.921875,1.8984379768371582,0.6439430713653564
22-06-1982,1.8828129768371582,0.0,100800,1.90625,1.90625,0.6465935111045837
23-06-1982,1.9140629768371582,0.0,182400,1.9609379768371582,1.953125,0.6624933481216431
24-06-1982,1.953125,0.0,635200,1.9921879768371582,1.9609379768371582,0.6651431322097778
25-06-1982,1.9453129768371582,0.0,168000,1.984375,1.9765629768371582,0.6704432964324951
28-06-1982,1.984375,0.0,752000,2.023437976837158,2.0,0.6783930659294128
29-06-1982,2.0,0.0,566400,2.09375,2.09375,0.7101923227310181
30-06-1982,2.03125,0.0,728000,2.085937976837158,2.078125,0.7048927545547485
01-07-1982,2.0625,0.0,1262400,2.085937976837158,2.085937976837158,0.7075425982475281
02-07-1982,2.070312976837158,0.0,228800,2.078125,2.078125,0.7048927545547485
06-07-1982,2.046875,0.0,910400,2.085937976837158,2.046875,0.6942928433418274
07-07-1982,2.0,0.0,244800,2.0625,2.0,0.6783930659294128
08-07-1982,2.0,0.0,256000,2.046875,2.039062976837158,0.6916429996490479
09-07-1982,2.039062976837158,0.0,971200,2.0625,2.0625,0.6995928883552551
12-07-1982,2.046875,0.0,321600,2.09375,2.0625,0.6995928883552551
13-07-1982,2.046875,0.0,1595200,2.070312976837158,2.046875,0.6942928433418274
14-07-1982,2.0,0.0,80000,2.03125,2.015625,0.6836932301521301
15-07-1982,2.0,0.0,219200,2.046875,2.03125,0.6889926791191101
16-07-1982,2.0,0.0,1366400,2.03125,2.023437976837158,0.6863430738449097
19-07-1982,2.03125,0.0,1960000,2.0625,2.046875,0.6942928433418274
20-07-1982,2.046875,0.0,907200,2.09375,2.085937976837158,0.7075425982475281
21-07-1982,2.09375,0.0,1259200,2.179687976837158,2.171875,0.7366925477981567
22-07-1982,2.164062976837158,0.0,206400,2.21875,2.203125,0.7472928166389465
23-07-1982,2.171875,0.0,185600,2.226562976837158,2.1875,0.7419925332069397
26-07-1982,2.1875,0.0,324800,2.242187976837158,2.242187976837158,0.7605425119400024
27-07-1982,2.210937976837158,0.0,184000,2.226562976837158,2.226562976837158,0.755242645740509
28-07-1982,2.132812976837158,0.0,358400,2.21875,2.140625,0.7260924577713013
29-07-1982,2.109375,0.0,401600,2.203125,2.203125,0.7472928166389465
30-07-1982,2.195312976837158,0.0,336000,2.226562976837158,2.226562976837158,0.755242645740509
02-08-1982,2.21875,0.0,564800,2.28125,2.273437976837158,0.7711424827575684
03-08-1982,2.234375,0.0,1036800,2.28125,2.25,0.7631925344467163
04-08-1982,2.140625,0.0,4504000,2.203125,2.148437976837158,0.7287425994873047
05-08-1982,2.09375,0.0,241600,2.140625,2.117187976837158,0.718142569065094
06-08-1982,2.03125,0.0,753600,2.117187976837158,2.03125,0.6889926791191101
09-08-1982,2.007812976837158,0.0,225600,2.054687976837158,2.054687976837158,0.6969431042671204
10-08-1982,2.046875,0.0,363200,2.078125,2.078125,0.7048927545547485
11-08-1982,2.070312976837158,0.0,219200,2.085937976837158,2.078125,0.7048927545547485
12-08-1982,2.070312976837158,0.0,756800,2.101562976837158,2.085937976837158,0.7075425982475281
13-08-1982,2.085937976837158,0.0,801600,2.117187976837158,2.109375,0.7154926061630249
16-08-1982,2.101562976837158,0.0,670400,2.132812976837158,2.117187976837158,0.718142569065094
17-08-1982,2.125,0.0,614400,2.179687976837158,2.179687976837158,0.7393425107002258
18-08-1982,2.25,0.0,2147200,2.34375,2.296875,0.779092013835907
19-08-1982,2.28125,0.0,1566400,2.3125,2.3125,0.7843919992446899
20-08-1982,2.328125,0.0,1852800,2.484375,2.4375,0.8267917037010193
23-08-1982,2.414062976837158,0.0,1672000,2.5,2.421875,0.8214914798736572
24-08-1982,2.375,0.0,1491200,2.4375,2.40625,0.8161913752555847
25-08-1982,2.375,0.0,1664000,2.507812976837158,2.4375,0.8267917037010193
26-08-1982,2.40625,0.0,1835200,2.53125,2.445312976837158,0.8294417262077332
27-08-1982,2.375,0.0,1766400,2.453125,2.40625,0.8161913752555847
30-08-1982,2.40625,0.0,1560000,2.515625,2.515625,0.8532913327217102
31-08-1982,2.53125,0.0,1078400,2.59375,2.53125,0.8585913777351379
01-09-1982,2.515625,0.0,611200,2.5625,2.515625,0.8532913327217102
02-09-1982,2.390625,0.0,681600,2.523437976837158,2.476562976837158,0.8400415182113647
03-09-1982,2.492187976837158,0.0,932800,2.554687976837158,2.539062976837158,0.8612409830093384
07-09-1982,2.53125,0.0,1057600,2.5625,2.546875,0.8638908863067627
08-09-1982,2.53125,0.0,369600,2.554687976837158,2.53125,0.8585913777351379
09-09-1982,2.53125,0.0,905600,2.554687976837158,2.53125,0.8585913777351379
10-09-1982,2.445312976837158,0.0,1099200,2.53125,2.484375,0.8426908850669861
13-09-1982,2.40625,0.0,2040000,2.492187976837158,2.484375,0.8426908850669861
14-09-1982,2.476562976837158,0.0,827200,2.539062976837158,2.484375,0.8426908850669861
15-09-1982,2.453125,0.0,534400,2.515625,2.515625,0.8532913327217102
16-09-1982,2.460937976837158,0.0,1214400,2.53125,2.492187976837158,0.8453410863876343
17-09-1982,2.445312976837158,0.0,1208000,2.515625,2.46875,0.837391197681427
20-09-1982,2.4375,0.0,584000,2.492187976837158,2.492187976837158,0.8453410863876343
21-09-1982,2.476562976837158,0.0,1401600,2.515625,2.515625,0.8532913327217102
22-09-1982,2.578125,0.0,2398400,2.617187976837158,2.585937976837158,0.877140998840332
23-09-1982,2.539062976837158,0.0,457600,2.5625,2.5625,0.8691909313201904
24-09-1982,2.53125,0.0,444800,2.5625,2.5625,0.8691909313201904
27-09-1982,2.53125,0.0,627200,2.5625,2.546875,0.8638908863067627
28-09-1982,2.546875,0.0,1088000,2.59375,2.546875,0.8638908863067627
29-09-1982,2.5,0.0,868800,2.5625,2.5,0.8479905724525452
30-09-1982,2.421875,0.0,380800,2.484375,2.460937976837158,0.8347419500350952
01-10-1982,2.445312976837158,0.0,617600,2.5,2.5,0.8479905724525452
04-10-1982,2.476562976837158,0.0,1147200,2.515625,2.507812976837158,0.8506407737731934
05-10-1982,2.5,0.0,1032000,2.53125,2.515625,0.8532913327217102
06-10-1982,2.515625,0.0,1368000,2.570312976837158,2.5625,0.8691909313201904
07-10-1982,2.5625,0.0,841600,2.625,2.609375,0.8850905895233154
08-10-1982,2.578125,0.0,324800,2.609375,2.59375,0.8797906041145325
11-10-1982,2.585937976837158,0.0,542400,2.640625,2.617187976837158,0.8877407908439636
12-10-1982,2.625,0.0,1148800,2.679687976837158,2.679687976837158,0.9089406728744507
13-10-1982,2.671875,0.0,668800,2.84375,2.828125,0.9592896699905396
14-10-1982,2.65625,0.0,795200,2.84375,2.65625,0.9009904861450195
15-10-1982,2.59375,0.0,521600,2.65625,2.632812976837158,0.8930416107177734
18-10-1982,2.648437976837158,0.0,326400,2.734375,2.734375,0.9274901747703552
19-10-1982,2.75,0.0,448000,2.8125,2.804687976837158,0.9513399004936218
20-10-1982,2.8125,0.0,1268800,2.9375,2.875,0.9751903414726257
21-10-1982,2.914062976837158,0.0,7321600,3.023437976837158,2.96875,1.0069897174835205
22-10-1982,3.046875,0.0,2614400,3.140625,3.070312976837158,1.0414395332336426
25-10-1982,2.875,0.0,764800,3.0625,2.890625,0.9804899096488953
26-10-1982,2.828125,0.0,988800,2.921875,2.921875,0.9910895824432373
27-10-1982,2.984375,0.0,780800,3.070312976837158,3.070312976837158,1.0414395332336426
28-10-1982,3.054687976837158,0.0,1020800,3.085937976837158,3.0625,1.038788914680481
29-10-1982,2.96875,0.0,1156800,3.070312976837158,3.007812976837158,1.0202397108078003
01-11-1982,2.945312976837158,0.0,1216000,3.007812976837158,3.0,1.0175902843475342
02-11-1982,2.976562976837158,0.0,1259200,3.039062976837158,3.015625,1.022889494895935
03-11-1982,3.015625,0.0,1827200,3.179687976837158,3.15625,1.0705888271331787
04-11-1982,3.234375,0.0,2828800,3.351562976837158,3.25,1.1023879051208496
05-11-1982,3.09375,0.0,1425600,3.335937976837158,3.335937976837158,1.1315385103225708
08-11-1982,3.1875,0.0,732800,3.304687976837158,3.273437976837158,1.110339641571045
09-11-1982,3.21875,0.0,1198400,3.296875,3.21875,1.091788649559021
10-11-1982,3.21875,0.0,739200,3.273437976837158,3.234375,1.0970885753631592
11-11-1982,3.15625,0.0,705600,3.21875,3.164062976837158,1.0732392072677612
12-11-1982,3.164062976837158,0.0,312000,3.203125,3.171875,1.0758885145187378
15-11-1982,3.03125,0.0,1032000,3.171875,3.0625,1.038788914680481
16-11-1982,3.015625,0.0,918400,3.09375,3.0625,1.038788914680481
17-11-1982,3.078125,0.0,1840000,3.140625,3.109375,1.054689645767212
18-11-1982,3.09375,0.0,504000,3.148437976837158,3.140625,1.0652893781661987
19-11-1982,3.109375,0.0,796800,3.1875,3.109375,1.054689645767212
22-11-1982,3.078125,0.0,769600,3.210937976837158,3.078125,1.044089674949646
23-11-1982,2.921875,0.0,617600,3.125,2.921875,0.9910895824432373
24-11-1982,2.9375,0.0,529600,3.0625,3.039062976837158,1.0308395624160767
26-11-1982,3.054687976837158,0.0,344000,3.125,3.109375,1.054689645767212
29-11-1982,3.117187976837158,0.0,272000,3.171875,3.140625,1.0652893781661987
30-11-1982,3.109375,0.0,496000,3.171875,3.140625,1.0652893781661987
01-12-1982,3.1875,0.0,611200,3.234375,3.203125,1.0864886045455933
02-12-1982,3.203125,0.0,649600,3.28125,3.234375,1.0970885753631592
03-12-1982,3.1875,0.0,412800,3.25,3.21875,1.091788649559021
06-12-1982,3.21875,0.0,459200,3.265625,3.25,1.1023879051208496
07-12-1982,3.25,0.0,1816000,3.3125,3.265625,1.1076878309249878
08-12-1982,3.21875,0.0,244800,3.28125,3.21875,1.091788649559021
09-12-1982,3.15625,0.0,126400,3.1875,3.15625,1.0705888271331787
10-12-1982,3.078125,0.0,145600,3.179687976837158,3.09375,1.0493897199630737
13-12-1982,2.984375,0.0,572800,3.0625,3.0,1.0175902843475342
14-12-1982,3.0,0.0,286400,3.078125,3.0,1.0175902843475342
15-12-1982,2.96875,0.0,160000,3.0,2.976562976837158,1.009639859199524
16-12-1982,2.882812976837158,0.0,1177600,2.96875,2.945312976837158,0.9990397095680237
17-12-1982,3.015625,0.0,291200,3.09375,3.09375,1.0493897199630737
20-12-1982,3.046875,0.0,868800,3.09375,3.078125,1.044089674949646
21-12-1982,3.078125,0.0,160000,3.109375,3.109375,1.054689645767212
22-12-1982,3.109375,0.0,694400,3.234375,3.234375,1.0970885753631592
23-12-1982,3.265625,0.0,291200,3.3125,3.28125,1.1129883527755737
27-12-1982,3.109375,0.0,803200,3.28125,3.210937976837158,1.089138388633728
28-12-1982,3.203125,0.0,744000,3.328125,3.296875,1.118288516998291
29-12-1982,3.234375,0.0,473600,3.304687976837158,3.28125,1.1129883527755737
30-12-1982,3.265625,0.0,315200,3.3125,3.265625,1.1076878309249878
31-12-1982,3.210937976837158,0.0,145600,3.25,3.234375,1.0970885753631592
03-01-1983,3.140625,0.0,499200,3.171875,3.15625,1.0705888271331787
04-01-1983,3.140625,0.0,353600,3.21875,3.21875,1.091788649559021
05-01-1983,3.234375,0.0,515200,3.296875,3.257812976837158,1.1050400733947754
06-01-1983,3.265625,0.0,1033600,3.46875,3.421875,1.1606874465942383
07-01-1983,3.421875,0.0,2430400,3.609375,3.570312976837158,1.2110379934310913
10-01-1983,3.46875,0.0,899200,3.539062976837158,3.5,1.1871873140335083
11-01-1983,3.453125,0.0,830400,3.515625,3.5,1.1871873140335083
12-01-1983,3.359375,0.0,593600,3.5,3.359375,1.139487624168396
13-01-1983,3.265625,0.0,724800,3.390625,3.382812976837158,1.1474381685256958
14-01-1983,3.28125,0.0,454400,3.40625,3.40625,1.1553876399993896
17-01-1983,3.382812976837158,0.0,652800,3.414062976837158,3.390625,1.1500880718231201
18-01-1983,3.375,0.0,288000,3.484375,3.484375,1.1818872690200806
19-01-1983,3.375,0.0,1323200,3.492187976837158,3.453125,1.1712875366210938
20-01-1983,3.328125,0.0,425600,3.429687976837158,3.359375,1.139487624168396
21-01-1983,3.257812976837158,0.0,241600,3.359375,3.28125,1.1129883527755737
24-01-1983,3.15625,0.0,656000,3.242187976837158,3.21875,1.091788649559021
25-01-1983,3.171875,0.0,332800,3.296875,3.21875,1.091788649559021
26-01-1983,3.21875,0.0,328000,3.265625,3.234375,1.0970885753631592
27-01-1983,3.265625,0.0,484800,3.40625,3.359375,1.139487624168396
28-01-1983,3.375,0.0,462400,3.429687976837158,3.40625,1.1553876399993896
31-01-1983,3.40625,0.0,1908800,3.445312976837158,3.429687976837158,1.1633381843566895
01-02-1983,3.375,0.0,1342400,3.453125,3.375,1.1447882652282715
02-02-1983,3.34375,0.0,249600,3.398437976837158,3.375,1.1447882652282715
03-02-1983,3.351562976837158,0.0,200000,3.40625,3.390625,1.1500880718231201
04-02-1983,3.34375,0.0,1100800,3.421875,3.40625,1.1553876399993896
07-02-1983,3.390625,0.0,1614400,3.460937976837158,3.421875,1.1606874465942383
08-02-1983,3.359375,0.0,667200,3.421875,3.375,1.1447882652282715
09-02-1983,3.3125,0.0,299200,3.375,3.367187976837158,1.1421383619308472
10-02-1983,3.375,0.0,784000,3.40625,3.40625,1.1553876399993896
11-02-1983,3.390625,0.0,768000,3.414062976837158,3.40625,1.1553876399993896
14-02-1983,3.390625,0.0,532800,3.40625,3.390625,1.1500880718231201
15-02-1983,3.328125,0.0,1260800,3.390625,3.34375,1.134188175201416
16-02-1983,3.34375,0.0,881600,3.398437976837158,3.375,1.1447882652282715
17-02-1983,3.34375,0.0,2440000,3.421875,3.390625,1.1500880718231201
18-02-1983,3.375,0.0,846400,3.421875,3.375,1.1447882652282715
22-02-1983,3.375,0.0,1120000,3.40625,3.398437976837158,1.1527379751205444
23-02-1983,3.34375,0.0,1406400,3.398437976837158,3.398437976837158,1.1527379751205444
24-02-1983,3.414062976837158,0.0,2683200,3.5625,3.5625,1.2083873748779297
25-02-1983,3.53125,0.0,2368000,3.601562976837158,3.539062976837158,1.2004374265670776
28-02-1983,3.578125,0.0,1920000,3.625,3.617187976837158,1.226936936378479
01-03-1983,3.625,0.0,1411200,3.703125,3.6875,1.2507871389389038
02-03-1983,3.695312976837158,0.0,1604800,3.75,3.742187976837158,1.2693381309509277
03-03-1983,3.71875,0.0,1451200,3.765625,3.71875,1.261387825012207
04-03-1983,3.671875,0.0,840000,3.734375,3.703125,1.256087064743042
07-03-1983,3.703125,0.0,425600,3.734375,3.71875,1.261387825012207
08-03-1983,3.65625,0.0,1718400,3.734375,3.65625,1.240187406539917
09-03-1983,3.640625,0.0,366400,3.6875,3.671875,1.2454875707626343
10-03-1983,3.6875,0.0,595200,3.726562976837158,3.6875,1.2507871389389038
11-03-1983,3.671875,0.0,548800,3.695312976837158,3.695312976837158,1.2534372806549072
14-03-1983,3.671875,0.0,542400,3.734375,3.726562976837158,1.2640372514724731
15-03-1983,3.695312976837158,0.0,740800,3.726562976837158,3.726562976837158,1.2640372514724731
16-03-1983,3.734375,0.0,1308800,3.757812976837158,3.75,1.2719870805740356
17-03-1983,3.75,0.0,859200,3.828125,3.8125,1.2931870222091675
18-03-1983,3.8125,0.0,1619200,4.0,3.984375,1.3514862060546875
21-03-1983,3.875,0.0,937600,3.976562976837158,3.90625,1.3249866962432861
22-03-1983,3.90625,0.0,1076800,3.96875,3.9375,1.3355863094329834
23-03-1983,3.921875,0.0,940800,3.960937976837158,3.921875,1.3302862644195557
24-03-1983,3.875,0.0,536000,3.929687976837158,3.890625,1.3196865320205688
25-03-1983,3.859375,0.0,564800,3.898437976837158,3.875,1.3143869638442993
28-03-1983,3.859375,0.0,416000,3.898437976837158,3.890625,1.3196865320205688
29-03-1983,3.859375,0.0,576000,3.890625,3.859375,1.309086799621582
30-03-1983,3.789062976837158,0.0,403200,3.867187976837158,3.820312976837158,1.2958378791809082
31-03-1983,3.835937976837158,0.0,547200,3.875,3.84375,1.3037863969802856
04-04-1983,3.84375,0.0,168000,3.875,3.859375,1.309086799621582
05-04-1983,3.84375,0.0,947200,3.875,3.859375,1.309086799621582
06-04-1983,3.8125,3.84375,960000,3.859375,3.84375,1.3037863969802856
07-04-1983,3.828125,3.859375,464000,3.859375,3.84375,1.3037863969802856
08-04-1983,3.75,3.84375,219200,3.84375,3.765625,1.2772868871688843
11-04-1983,3.75,3.765625,387200,3.796875,3.765625,1.2772868871688843
12-04-1983,3.78125,3.796875,313600,3.828125,3.828125,1.2984868288040161
13-04-1983,3.84375,3.84375,401600,3.90625,3.90625,1.3249866962432861
14-04-1983,3.914062976837158,3.9375,316800,3.953125,3.9375,1.3355863094329834
15-04-1983,3.914062976837158,3.953125,286400,3.960937976837158,3.914062976837158,1.3276361227035522
18-04-1983,3.888672113418579,3.914062976837158,337600,3.929687976837158,3.929687976837158,1.3329360485076904
19-04-1983,3.898437976837158,3.929687976837158,494400,3.976562976837158,3.976562976837158,1.3488367795944214
20-04-1983,3.96875,3.976562976837158,198400,3.992187976837158,3.984375,1.3514862060546875
21-04-1983,3.953125,3.984375,465600,4.015625,3.953125,1.3408864736557007
22-04-1983,3.9375,3.960937976837158,182400,4.0,3.953125,1.3408864736557007
25-04-1983,3.90625,3.953125,468800,4.0,3.96875,1.3461863994598389
26-04-1983,3.96875,3.992187976837158,272000,4.015625,4.0,1.3567861318588257
27-04-1983,4.0,4.046875,387200,4.09375,4.023437976837158,1.3647359609603882
28-04-1983,4.015625,4.03125,571200,4.046875,4.039062976837158,1.3700357675552368
29-04-1983,4.039062976837158,4.0625,619200,4.085937976837158,4.085937976837158,1.3859355449676514
02-05-1983,4.046875,4.085937976837158,670400,4.117187976837158,4.054687976837158,1.3753361701965332
03-05-1983,4.0,4.023437976837158,428800,4.039062976837158,4.039062976837158,1.3700357675552368
04-05-1983,3.976562976837158,4.007812976837158,451200,4.03125,3.992187976837158,1.3666129112243652
05-05-1983,3.921875,3.96875,740800,4.007812976837158,3.9375,1.3478918075561523
06-05-1983,3.953125,3.953125,803200,4.078125,4.046875,1.3853330612182617
09-05-1983,4.0,4.015625,553600,4.0625,4.054687976837158,1.3880075216293335
10-05-1983,4.03125,4.070312976837158,492800,4.070312976837158,4.03125,1.3799843788146973
11-05-1983,4.0,4.039062976837158,252800,4.046875,4.023437976837158,1.377310037612915
12-05-1983,3.96875,4.023437976837158,396800,4.03125,3.976562976837158,1.3612639904022217
13-05-1983,3.960937976837158,3.992187976837158,225600,3.992187976837158,3.984375,1.3639384508132935
16-05-1983,3.9375,3.96875,356800,4.0,4.0,1.369287133216858
17-05-1983,3.976562976837158,4.0,288000,4.015625,4.015625,1.3746355772018433
18-05-1983,4.007812976837158,4.007812976837158,825600,4.140625,4.03125,1.3799843788146973
19-05-1983,3.921875,3.984375,1417600,3.984375,3.953125,1.353240728378296
20-05-1983,3.9375,3.953125,321600,4.007812976837158,4.007812976837158,1.3719617128372192
23-05-1983,4.007812976837158,4.015625,488000,4.0625,4.039062976837158,1.3826589584350586
24-05-1983,4.046875,4.046875,355200,4.117187976837158,4.117187976837158,1.4094022512435913
25-05-1983,4.078125,4.09375,580800,4.117187976837158,4.109375,1.4067282676696777
26-05-1983,4.078125,4.09375,1388800,4.25,4.203125,1.438820719718933
27-05-1983,4.15625,4.203125,209600,4.203125,4.164062976837158,1.4254498481750488
31-05-1983,4.078125,4.164062976837158,601600,4.171875,4.09375,1.4013795852661133
01-06-1983,4.0625,4.0625,488000,4.101562976837158,4.101562976837158,1.4040547609329224
02-06-1983,3.984375,4.109375,366400,4.117187976837158,4.03125,1.3799843788146973
03-06-1983,3.96875,4.015625,1065600,4.046875,4.03125,1.3799843788146973
06-06-1983,4.054687976837158,4.0625,5444800,4.078125,4.070312976837158,1.393356442451477
07-06-1983,4.03125,4.085937976837158,457600,4.085937976837158,4.046875,1.3853330612182617
08-06-1983,4.007812976837158,4.046875,444800,4.054687976837158,4.007812976837158,1.3719617128372192
09-06-1983,3.984375,4.015625,427200,4.023437976837158,4.007812976837158,1.3719617128372192
10-06-1983,4.015625,4.023437976837158,1878400,4.0625,4.0625,1.3906824588775635
13-06-1983,4.0625,4.0625,1062400,4.09375,4.078125,1.396031141281128
14-06-1983,4.078125,4.078125,272000,4.109375,4.109375,1.4067282676696777
15-06-1983,4.101562976837158,4.109375,592000,4.125,4.117187976837158,1.4094022512435913
16-06-1983,4.125,4.125,628800,4.15625,4.15625,1.4227745532989502
17-06-1983,4.125,4.15625,1081600,4.164062976837158,4.125,1.4120774269104004
20-06-1983,4.101562976837158,4.109375,222400,4.140625,4.117187976837158,1.4094022512435913
21-06-1983,4.046875,4.101562976837158,340800,4.117187976837158,4.09375,1.4013795852661133
22-06-1983,4.0625,4.085937976837158,435200,4.109375,4.09375,1.4013795852661133
23-06-1983,4.070312976837158,4.09375,145600,4.109375,4.070312976837158,1.393356442451477
24-06-1983,4.0625,4.070312976837158,212800,4.09375,4.09375,1.4013795852661133
27-06-1983,4.0625,4.070312976837158,609600,4.085937976837158,4.078125,1.396031141281128
28-06-1983,4.046875,4.09375,428800,4.109375,4.046875,1.3853330612182617
29-06-1983,3.9375,4.039062976837158,1552000,4.039062976837158,3.9375,1.3478918075561523
30-06-1983,3.921875,3.9375,534400,3.984375,3.96875,1.358589768409729
01-07-1983,3.953125,3.953125,947200,4.023437976837158,4.023437976837158,1.377310037612915
05-07-1983,3.96875,4.007812976837158,155200,4.007812976837158,3.992187976837158,1.3666129112243652
06-07-1983,3.9375,3.96875,217600,3.992187976837158,3.984375,1.3639384508132935
07-07-1983,3.921875,3.984375,452800,3.984375,3.96875,1.358589768409729
08-07-1983,3.960937976837158,3.96875,152000,3.984375,3.984375,1.3639384508132935
11-07-1983,3.976562976837158,3.984375,395200,3.992187976837158,3.976562976837158,1.3612639904022217
12-07-1983,3.90625,3.976562976837158,569600,3.976562976837158,3.90625,1.337194561958313
13-07-1983,3.859375,3.890625,291200,3.921875,3.867187976837158,1.3238226175308228
14-07-1983,3.875,3.90625,419200,3.9375,3.898437976837158,1.3345201015472412
15-07-1983,3.8125,3.90625,329600,3.914062976837158,3.828125,1.3104506731033325
18-07-1983,3.78125,3.804687976837158,827200,3.828125,3.8125,1.3051013946533203
19-07-1983,3.796875,3.804687976837158,497600,3.820312976837158,3.8125,1.3051013946533203
20-07-1983,3.8125,3.8125,633600,3.875,3.875,1.3264970779418945
21-07-1983,4.0,4.03125,681600,4.03125,4.0,1.369287133216858
22-07-1983,4.015625,4.070312976837158,747200,4.125,4.125,1.4120774269104004
25-07-1983,4.148437976837158,4.148437976837158,441600,4.210937976837158,4.210937976837158,1.4414963722229004
26-07-1983,4.21875,4.21875,814400,4.3125,4.3125,1.4762619733810425
27-07-1983,4.1875,4.3125,531200,4.3125,4.195312976837158,1.4361467361450195
28-07-1983,4.0625,4.203125,384000,4.210937976837158,4.085937976837158,1.3987057209014893
29-07-1983,3.953125,4.03125,771200,4.054687976837158,3.992187976837158,1.3666129112243652
01-08-1983,3.867187976837158,3.90625,1000000,3.921875,3.914062976837158,1.3398685455322266
02-08-1983,3.90625,3.9375,254400,3.953125,3.914062976837158,1.3398685455322266
03-08-1983,3.84375,3.890625,656000,3.90625,3.875,1.3264970779418945
04-08-1983,3.65625,3.796875,812800,3.84375,3.710937976837158,1.2835849523544312
05-08-1983,3.6875,3.6875,881600,3.757812976837158,3.734375,1.2916922569274902
08-08-1983,3.703125,3.703125,472000,3.828125,3.734375,1.2916922569274902
09-08-1983,3.65625,3.765625,2072000,3.765625,3.671875,1.2700724601745605
10-08-1983,3.5,3.640625,1752000,3.640625,3.53125,1.2214323282241821
11-08-1983,3.5,3.53125,923200,3.609375,3.5625,1.2322417497634888
12-08-1983,3.578125,3.59375,320000,3.65625,3.632812976837158,1.2565618753433228
15-08-1983,3.664062976837158,3.664062976837158,304000,3.765625,3.75,1.2970960140228271
16-08-1983,3.632812976837158,3.75,900800,3.75,3.671875,1.2700724601745605
17-08-1983,3.65625,3.65625,868800,3.75,3.734375,1.2916922569274902
18-08-1983,3.703125,3.765625,305600,3.796875,3.710937976837158,1.2835849523544312
19-08-1983,3.703125,3.71875,187200,3.742187976837158,3.734375,1.2916922569274902
22-08-1983,3.734375,3.742187976837158,1060800,3.8125,3.742187976837158,1.2943942546844482
23-08-1983,3.75,3.773437976837158,288000,3.8125,3.789062976837158,1.310607671737671
24-08-1983,3.726562976837158,3.765625,225600,3.765625,3.734375,1.2916922569274902
25-08-1983,3.710937976837158,3.71875,550400,3.8125,3.804687976837158,1.3160121440887451
26-08-1983,3.8125,3.8125,433600,3.90625,3.90625,1.3511412143707275
29-08-1983,3.882812976837158,3.921875,259200,3.960937976837158,3.945312976837158,1.3646535873413086
30-08-1983,3.953125,3.953125,1729600,4.070312976837158,4.0,1.3835692405700684
31-08-1983,3.96875,3.96875,924800,3.984375,3.984375,1.3781644105911255
01-09-1983,3.96875,3.96875,502400,4.0625,4.046875,1.3997821807861328
02-09-1983,4.046875,4.0625,310400,4.125,4.125,1.4268059730529785
06-09-1983,4.15625,4.171875,457600,4.203125,4.1875,1.4484241008758545
07-09-1983,4.21875,4.21875,1228800,4.335937976837158,4.335937976837158,1.4997673034667969
08-09-1983,4.320312976837158,4.34375,628800,4.375,4.359375,1.507873773574829
09-09-1983,4.28125,4.359375,2353600,4.375,4.28125,1.4808510541915894
12-09-1983,4.25,4.296875,604800,4.375,4.257812976837158,1.472744345664978
13-09-1983,4.125,4.265625,381600,4.265625,4.1875,1.4484241008758545
14-09-1983,4.15625,4.21875,126400,4.21875,4.203125,1.4538280963897705
15-09-1983,4.1875,4.203125,356800,4.21875,4.21875,1.4592326879501343
16-09-1983,4.0625,4.1875,581600,4.1875,4.09375,1.4159969091415405
19-09-1983,4.09375,4.125,172800,4.21875,4.171875,1.4430195093154907
20-09-1983,4.140625,4.140625,395200,4.25,4.25,1.4700418710708618
21-09-1983,4.203125,4.25,999200,4.46875,4.46875,1.5457055568695068
22-09-1983,4.375,4.46875,1304000,4.46875,4.4375,1.5348976850509644
23-09-1983,4.40625,4.421875,452800,4.546875,4.546875,1.5727287530899048
26-09-1983,4.46875,4.546875,338400,4.578125,4.484375,1.5511112213134766
27-09-1983,4.4375,4.5,402400,4.53125,4.5,1.5565146207809448
28-09-1983,4.453125,4.46875,150400,4.53125,4.453125,1.54030179977417
29-09-1983,4.34375,4.4375,211200,4.5,4.34375,1.5024693012237549
30-09-1983,4.09375,4.28125,1076800,4.28125,4.109375,1.4214009046554565
03-10-1983,4.015625,4.109375,313600,4.109375,4.109375,1.4214009046554565
04-10-1983,4.078125,4.078125,366400,4.265625,4.234375,1.4646384716033936
05-10-1983,4.15625,4.1875,376000,4.25,4.25,1.4700418710708618
06-10-1983,4.21875,4.25,899200,4.390625,4.34375,1.5024693012237549
07-10-1983,4.5625,4.5625,759200,4.625,4.609375,1.594346523284912
10-10-1983,4.515625,4.5625,546400,4.5625,4.515625,1.5619208812713623
11-10-1983,4.5,4.5625,453600,4.59375,4.5,1.5565146207809448
12-10-1983,4.46875,4.5,406400,4.578125,4.5625,1.5781335830688477
13-10-1983,4.5625,4.625,558400,4.65625,4.578125,1.5835391283035278
14-10-1983,4.515625,4.5625,148000,4.609375,4.546875,1.5727287530899048
17-10-1983,4.375,4.53125,324000,4.53125,4.40625,1.5240875482559204
18-10-1983,4.375,4.515625,324000,4.53125,4.40625,1.5240875482559204
19-10-1983,4.375,4.421875,2216000,4.5625,4.40625,1.5240875482559204
20-10-1983,4.40625,4.4375,604800,4.53125,4.46875,1.5457055568695068
21-10-1983,4.453125,4.453125,1336000,4.5625,4.53125,1.5673243999481201
24-10-1983,4.5,4.53125,313600,4.578125,4.5625,1.5781335830688477
25-10-1983,4.53125,4.5625,668800,4.59375,4.546875,1.5727287530899048
26-10-1983,4.453125,4.546875,351200,4.578125,4.515625,1.5619208812713623
27-10-1983,4.484375,4.5,41600,4.5625,4.484375,1.5511112213134766
28-10-1983,4.484375,4.484375,607200,4.53125,4.5,1.5565146207809448
31-10-1983,4.515625,4.53125,478400,4.59375,4.5625,1.5781335830688477
01-11-1983,4.4375,4.578125,793600,4.578125,4.46875,1.5457055568695068
02-11-1983,4.453125,4.46875,877600,4.5625,4.546875,1.5727287530899048
03-11-1983,4.453125,4.53125,236000,4.53125,4.46875,1.5594241619110107
04-11-1983,4.34375,4.375,336800,4.453125,4.34375,1.5158041715621948
07-11-1983,4.25,4.375,408000,4.40625,4.28125,1.4939939975738525
08-11-1983,4.203125,4.28125,435200,4.28125,4.203125,1.466731309890747
09-11-1983,4.203125,4.234375,176800,4.28125,4.25,1.4830890893936157
10-11-1983,4.1875,4.25,495200,4.28125,4.203125,1.466731309890747
11-11-1983,4.21875,4.234375,1606400,4.3125,4.3125,1.5048989057540894
14-11-1983,4.328125,4.328125,616000,4.4375,4.375,1.5267091989517212
15-11-1983,4.34375,4.359375,920800,4.390625,4.34375,1.5158041715621948
16-11-1983,4.296875,4.3125,454400,4.40625,4.40625,1.5376139879226685
17-11-1983,4.359375,4.359375,792000,4.421875,4.390625,1.5321624279022217
18-11-1983,4.328125,4.359375,531200,4.390625,4.390625,1.5321624279022217
21-11-1983,4.375,4.421875,281600,4.4375,4.40625,1.5376139879226685
22-11-1983,4.40625,4.4375,636800,4.5625,4.53125,1.5812348127365112
23-11-1983,4.546875,4.546875,619200,4.65625,4.578125,1.5975935459136963
25-11-1983,4.59375,4.625,273600,4.625,4.59375,1.6030455827713013
28-11-1983,4.53125,4.59375,770400,4.625,4.5625,1.5921399593353271
29-11-1983,4.4375,4.5625,1019200,4.5625,4.4375,1.5485203266143799
30-11-1983,4.46875,4.5,844000,4.546875,4.515625,1.575783371925354
01-12-1983,4.484375,4.484375,309600,4.546875,4.5,1.5703290700912476
02-12-1983,4.46875,4.46875,124800,4.5625,4.546875,1.5866870880126953
05-12-1983,4.4375,4.515625,754400,4.515625,4.5,1.5703290700912476
06-12-1983,4.46875,4.515625,184000,4.515625,4.46875,1.5594241619110107
07-12-1983,4.4375,4.4375,735200,4.5,4.4375,1.5485203266143799
08-12-1983,4.40625,4.46875,628800,4.46875,4.4375,1.5485203266143799
09-12-1983,4.40625,4.40625,500000,4.453125,4.4375,1.5485203266143799
12-12-1983,4.390625,4.390625,120000,4.4375,4.390625,1.5321624279022217
13-12-1983,4.375,4.40625,100000,4.453125,4.40625,1.5376139879226685
14-12-1983,4.34375,4.375,1194400,4.40625,4.34375,1.5158041715621948
15-12-1983,4.25,4.25,192800,4.3125,4.265625,1.4885413646697998
16-12-1983,4.1875,4.265625,640800,4.28125,4.234375,1.4776376485824585
19-12-1983,4.203125,4.203125,1264000,4.375,4.296875,1.4994462728500366
20-12-1983,4.28125,4.28125,405600,4.375,4.296875,1.4994462728500366
21-12-1983,4.21875,4.296875,792800,4.3125,4.3125,1.5048989057540894
22-12-1983,4.25,4.3125,403200,4.34375,4.25,1.4830890893936157
23-12-1983,4.203125,4.203125,127200,4.25,4.21875,1.4721837043762207
27-12-1983,4.234375,4.234375,384800,4.328125,4.328125,1.5103522539138794
28-12-1983,4.25,4.3125,1399200,4.328125,4.296875,1.4994462728500366
29-12-1983,4.296875,4.3125,188800,4.4375,4.4375,1.5485203266143799
30-12-1983,4.34375,4.46875,563200,4.46875,4.359375,1.5212565660476685
03-01-1984,4.328125,4.328125,460000,4.453125,4.34375,1.5158041715621948
04-01-1984,4.3125,4.328125,1320800,4.375,4.34375,1.5158041715621948
05-01-1984,4.34375,4.375,1296000,4.609375,4.5625,1.5921399593353271
06-01-1984,4.53125,4.59375,693600,4.625,4.59375,1.6030455827713013
09-01-1984,4.578125,4.59375,900800,4.75,4.671875,1.6303075551986694
10-01-1984,4.578125,4.703125,532000,4.71875,4.578125,1.5975935459136963
11-01-1984,4.5,4.5625,502400,4.609375,4.578125,1.5975935459136963
12-01-1984,4.46875,4.53125,204000,4.5625,4.5,1.5703290700912476
13-01-1984,4.3125,4.4375,294400,4.4375,4.375,1.5267091989517212
16-01-1984,4.3125,4.34375,391200,4.421875,4.421875,1.543066143989563
17-01-1984,4.375,4.421875,351200,4.4375,4.421875,1.543066143989563
18-01-1984,4.34375,4.421875,552800,4.4375,4.375,1.5267091989517212
19-01-1984,4.40625,4.40625,529600,4.46875,4.4375,1.5485203266143799
20-01-1984,4.453125,4.484375,268000,4.484375,4.453125,1.5539724826812744
23-01-1984,4.296875,4.4375,2306400,4.4375,4.296875,1.4994462728500366
24-01-1984,4.21875,4.296875,504800,4.328125,4.21875,1.4721837043762207
25-01-1984,4.1875,4.25,560800,4.296875,4.21875,1.4721837043762207
26-01-1984,4.0625,4.15625,846400,4.1875,4.15625,1.450373888015747
27-01-1984,4.09375,4.125,588800,4.1875,4.125,1.4394692182540894
30-01-1984,3.96875,4.078125,643200,4.078125,4.0,1.3958488702774048
31-01-1984,3.96875,4.0,533600,4.09375,4.0,1.3958488702774048
01-02-1984,3.8125,4.0,642400,4.0625,3.96875,1.3849440813064575
02-02-1984,3.859375,3.921875,502400,3.953125,3.875,1.3522286415100098
03-02-1984,3.90625,3.90625,748800,4.0,3.9375,1.3740383386611938
06-02-1984,3.859375,3.890625,1136800,3.96875,3.9375,1.3740383386611938
07-02-1984,3.875,3.921875,891200,3.953125,3.953125,1.3794909715652466
08-02-1984,3.921875,4.03125,405600,4.0625,3.9375,1.3740383386611938
09-02-1984,3.8125,3.921875,765600,3.96875,3.84375,1.3413225412368774
10-02-1984,3.71875,3.84375,756000,3.875,3.78125,1.3195135593414307
13-02-1984,3.71875,3.796875,352000,3.796875,3.765625,1.314060091972351
14-02-1984,3.625,3.78125,989600,3.78125,3.75,1.3226579427719116
15-02-1984,3.59375,3.75,422400,3.75,3.625,1.278569221496582
16-02-1984,3.546875,3.671875,396800,3.6875,3.625,1.278569221496582
17-02-1984,3.421875,3.625,993600,3.640625,3.46875,1.2234585285186768
21-02-1984,3.4375,3.484375,616000,3.5,3.484375,1.2289692163467407
22-02-1984,3.4375,3.484375,3064800,3.609375,3.578125,1.2620357275009155
23-02-1984,3.4375,3.578125,684000,3.578125,3.546875,1.251014232635498
24-02-1984,3.53125,3.5625,696000,3.625,3.59375,1.2675470113754272
27-02-1984,3.640625,3.671875,732800,3.8125,3.78125,1.3336796760559082
28-02-1984,3.625,3.78125,644800,3.78125,3.65625,1.2895910739898682
29-02-1984,3.65625,3.65625,277600,3.796875,3.734375,1.3171472549438477
01-03-1984,3.6875,3.75,355200,3.8125,3.78125,1.3336796760559082
02-03-1984,3.6875,3.75,1381600,3.8125,3.78125,1.3336796760559082
05-03-1984,3.71875,3.8125,566400,3.90625,3.71875,1.3116365671157837
06-03-1984,3.71875,3.75,408800,3.8125,3.765625,1.328168511390686
07-03-1984,3.6875,3.71875,195200,3.8125,3.75,1.3226579427719116
08-03-1984,3.65625,3.734375,291200,3.765625,3.71875,1.3116365671157837
09-03-1984,3.65625,3.75,484000,3.75,3.65625,1.2895910739898682
12-03-1984,3.671875,3.671875,291200,3.796875,3.75,1.3226579427719116
13-03-1984,3.78125,3.78125,470400,3.875,3.8125,1.3447017669677734
14-03-1984,3.78125,3.8125,1076000,3.859375,3.8125,1.3447017669677734
15-03-1984,3.78125,3.8125,289600,3.859375,3.8125,1.3447017669677734
16-03-1984,3.890625,3.90625,772000,3.9375,3.921875,1.3832801580429077
19-03-1984,3.8125,3.890625,313600,3.890625,3.859375,1.36123526096344
20-03-1984,3.796875,3.828125,220800,3.859375,3.859375,1.36123526096344
21-03-1984,3.828125,3.828125,252800,3.9375,3.875,1.3667469024658203
22-03-1984,3.78125,3.90625,209600,3.90625,3.828125,1.3502132892608643
23-03-1984,3.75,3.8125,304800,3.84375,3.78125,1.3336796760559082
26-03-1984,3.75,3.78125,122400,3.8125,3.796875,1.339191198348999
27-03-1984,3.75,3.765625,103200,3.8125,3.796875,1.339191198348999
28-03-1984,3.78125,3.796875,248800,3.828125,3.8125,1.3447017669677734
29-03-1984,3.765625,3.828125,260800,3.828125,3.796875,1.339191198348999
30-03-1984,3.71875,3.796875,354400,3.8125,3.796875,1.339191198348999
02-04-1984,3.640625,3.765625,433600,3.796875,3.640625,1.2840807437896729
03-04-1984,3.625,3.640625,559200,3.71875,3.6875,1.3006131649017334
04-04-1984,3.65625,3.65625,249600,3.71875,3.703125,1.306125521659851
05-04-1984,3.65625,3.703125,140800,3.71875,3.703125,1.306125521659851
06-04-1984,3.640625,3.671875,188000,3.6875,3.65625,1.2895910739898682
09-04-1984,3.5,3.6875,860800,3.71875,3.515625,1.2399919033050537
10-04-1984,3.453125,3.5,480800,3.53125,3.453125,1.2179477214813232
11-04-1984,3.390625,3.4375,2084800,3.453125,3.4375,1.2124369144439697
12-04-1984,3.484375,3.484375,885600,3.578125,3.546875,1.251014232635498
13-04-1984,3.4375,3.578125,2246400,3.59375,3.484375,1.2289692163467407
16-04-1984,3.421875,3.5,888800,3.5,3.46875,1.2234585285186768
17-04-1984,3.484375,3.5,1244800,3.546875,3.5,1.2344810962677002
18-04-1984,3.5,3.515625,1323200,3.53125,3.515625,1.2399919033050537
19-04-1984,3.5,3.53125,290400,3.578125,3.5625,1.2565256357192993
23-04-1984,3.546875,3.59375,242400,3.609375,3.5625,1.2565256357192993
24-04-1984,3.484375,3.53125,612800,3.609375,3.5,1.2344810962677002
25-04-1984,3.515625,3.53125,840800,3.59375,3.5625,1.2565256357192993
26-04-1984,3.59375,3.59375,1172800,3.75,3.703125,1.306125521659851
27-04-1984,3.703125,3.734375,596800,3.8125,3.75,1.3226579427719116
30-04-1984,3.703125,3.75,315200,3.796875,3.78125,1.3336796760559082
01-05-1984,3.78125,3.796875,473600,3.84375,3.84375,1.3557250499725342
02-05-1984,3.78125,3.859375,392800,3.875,3.859375,1.36123526096344
03-05-1984,3.78125,3.890625,353600,3.890625,3.828125,1.3502132892608643
04-05-1984,3.59375,3.78125,682400,3.796875,3.65625,1.3049306869506836
07-05-1984,3.65625,3.71875,988000,3.75,3.75,1.3383909463882446
08-05-1984,3.71875,3.75,811200,3.828125,3.8125,1.360696792602539
09-05-1984,3.765625,3.8125,752000,3.875,3.78125,1.3495436906814575
10-05-1984,3.734375,3.78125,208800,3.78125,3.78125,1.3495436906814575
11-05-1984,3.5625,3.78125,575200,3.78125,3.703125,1.3216608762741089
14-05-1984,3.578125,3.71875,273600,3.71875,3.625,1.2937778234481812
15-05-1984,3.5625,3.625,702400,3.640625,3.578125,1.2770479917526245
16-05-1984,3.453125,3.5625,1334400,3.5625,3.5625,1.2714710235595703
17-05-1984,3.46875,3.53125,1342400,3.5625,3.46875,1.2380118370056152
18-05-1984,3.40625,3.453125,908800,3.5,3.421875,1.2212817668914795
21-05-1984,3.390625,3.40625,536800,3.46875,3.421875,1.2212817668914795
22-05-1984,3.28125,3.421875,1011200,3.421875,3.34375,1.1933988332748413
23-05-1984,3.34375,3.359375,583200,3.421875,3.390625,1.2101291418075562
24-05-1984,3.296875,3.375,1495200,3.40625,3.34375,1.1933988332748413
25-05-1984,3.28125,3.375,728000,3.40625,3.3125,1.1822454929351807
29-05-1984,3.1875,3.34375,768000,3.359375,3.25,1.159938931465149
30-05-1984,3.125,3.28125,3813600,3.28125,3.15625,1.126477837562561
31-05-1984,3.09375,3.109375,1299200,3.171875,3.125,1.1153254508972168
01-06-1984,3.171875,3.1875,1281600,3.234375,3.203125,1.1432081460952759
04-06-1984,3.21875,3.21875,2139200,3.46875,3.375,1.204551339149475
05-06-1984,3.28125,3.40625,825600,3.40625,3.34375,1.1933988332748413
06-06-1984,3.40625,3.40625,440000,3.46875,3.46875,1.2380118370056152
07-06-1984,3.46875,3.46875,6442400,3.515625,3.515625,1.2547414302825928
08-06-1984,3.484375,3.53125,396800,3.546875,3.53125,1.2603182792663574
11-06-1984,3.515625,3.5625,323200,3.5625,3.53125,1.2603182792663574
12-06-1984,3.453125,3.484375,284000,3.5,3.5,1.2491647005081177
13-06-1984,3.484375,3.5,260800,3.53125,3.515625,1.2547414302825928
14-06-1984,3.421875,3.5,861600,3.515625,3.453125,1.232434868812561
15-06-1984,3.375,3.453125,334400,3.484375,3.40625,1.2157049179077148
18-06-1984,3.375,3.375,472000,3.484375,3.46875,1.2380118370056152
19-06-1984,3.4375,3.5,385600,3.5,3.484375,1.2435883283615112
20-06-1984,3.375,3.453125,2826400,3.46875,3.46875,1.2380118370056152
21-06-1984,3.421875,3.46875,983200,3.46875,3.453125,1.232434868812561
22-06-1984,3.390625,3.453125,839200,3.453125,3.453125,1.232434868812561
25-06-1984,3.453125,3.484375,1771200,3.515625,3.46875,1.2380118370056152
26-06-1984,3.46875,3.5,2021600,3.546875,3.46875,1.2380118370056152
27-06-1984,3.375,3.4375,542400,3.46875,3.4375,1.2268588542938232
28-06-1984,3.390625,3.4375,572000,3.4375,3.4375,1.2268588542938232
29-06-1984,3.4375,3.4375,1027200,3.484375,3.484375,1.2435883283615112
02-07-1984,3.453125,3.53125,511200,3.53125,3.484375,1.2435883283615112
03-07-1984,3.46875,3.5,676000,3.59375,3.5625,1.2714710235595703
05-07-1984,3.5,3.5625,293600,3.578125,3.546875,1.2658947706222534
06-07-1984,3.484375,3.53125,331200,3.65625,3.546875,1.2658947706222534
09-07-1984,3.578125,3.59375,264000,3.625,3.625,1.2937778234481812
10-07-1984,3.65625,3.65625,552800,3.78125,3.71875,1.3272374868392944
11-07-1984,3.65625,3.71875,184000,3.75,3.6875,1.3160837888717651
12-07-1984,3.5625,3.625,382400,3.6875,3.625,1.2937778234481812
13-07-1984,3.546875,3.65625,687200,3.6875,3.609375,1.2882013320922852
16-07-1984,3.546875,3.609375,436000,3.65625,3.625,1.2937778234481812
17-07-1984,3.609375,3.625,928800,3.6875,3.65625,1.3049306869506836
18-07-1984,3.53125,3.65625,272800,3.65625,3.625,1.2937778234481812
19-07-1984,3.46875,3.625,314400,3.625,3.5,1.2491647005081177
20-07-1984,3.53125,3.53125,136000,3.625,3.59375,1.2826248407363892
23-07-1984,3.53125,3.59375,532000,3.59375,3.546875,1.2658947706222534
24-07-1984,3.53125,3.546875,476800,3.59375,3.546875,1.2658947706222534
25-07-1984,3.515625,3.546875,224800,3.578125,3.546875,1.2658947706222534
26-07-1984,3.5,3.578125,936800,3.578125,3.53125,1.2603182792663574
27-07-1984,3.46875,3.5,457600,3.625,3.53125,1.2603182792663574
30-07-1984,3.46875,3.546875,628000,3.609375,3.5,1.2491647005081177
31-07-1984,3.40625,3.484375,531200,3.53125,3.453125,1.232434868812561
01-08-1984,3.484375,3.484375,1785600,3.734375,3.625,1.2937778234481812
02-08-1984,3.625,3.625,1441600,3.75,3.75,1.3383909463882446
03-08-1984,3.828125,3.875,1789600,3.9375,3.875,1.3830044269561768
06-08-1984,3.8125,3.859375,2960800,3.9375,3.9375,1.4218223094940186
07-08-1984,3.890625,3.90625,716000,4.046875,3.984375,1.4387482404708862
08-08-1984,3.9375,3.984375,592000,4.0,3.9375,1.4218223094940186
09-08-1984,3.875,3.9375,1179200,4.125,4.109375,1.4838844537734985
10-08-1984,4.09375,4.09375,1677600,4.234375,4.1875,1.5120972394943237
13-08-1984,4.0625,4.15625,1063200,4.1875,4.078125,1.4726011753082275
14-08-1984,4.09375,4.15625,637600,4.15625,4.09375,1.4782439470291138
15-08-1984,3.96875,4.03125,536000,4.109375,4.078125,1.4726011753082275
16-08-1984,4.046875,4.046875,495200,4.15625,4.09375,1.4782439470291138
17-08-1984,4.09375,4.125,474400,4.15625,4.109375,1.4838844537734985
20-08-1984,4.09375,4.09375,893600,4.1875,4.1875,1.5120972394943237
21-08-1984,4.15625,4.21875,700000,4.28125,4.234375,1.5290220975875854
22-08-1984,4.125,4.234375,1062400,4.234375,4.21875,1.5233803987503052
23-08-1984,4.171875,4.1875,199200,4.21875,4.1875,1.5120972394943237
24-08-1984,4.1875,4.1875,376800,4.3125,4.296875,1.5515912771224976
27-08-1984,4.21875,4.3125,188800,4.3125,4.28125,1.5459487438201904
28-08-1984,4.21875,4.25,974400,4.296875,4.234375,1.5290220975875854
29-08-1984,4.171875,4.25,725600,4.28125,4.1875,1.5120972394943237
30-08-1984,4.140625,4.15625,276000,4.203125,4.15625,1.500812292098999
31-08-1984,4.09375,4.125,365600,4.1875,4.1875,1.5120972394943237
04-09-1984,4.140625,4.15625,382400,4.171875,4.171875,1.5064542293548584
05-09-1984,4.078125,4.140625,368000,4.171875,4.140625,1.4951701164245605
06-09-1984,4.171875,4.171875,220000,4.203125,4.1875,1.5120972394943237
07-09-1984,4.15625,4.234375,332000,4.25,4.1875,1.5120972394943237
10-09-1984,4.140625,4.15625,212800,4.21875,4.1875,1.5120972394943237
11-09-1984,4.21875,4.21875,533600,4.28125,4.25,1.5346641540527344
12-09-1984,4.1875,4.21875,748800,4.25,4.21875,1.5233803987503052
13-09-1984,4.1875,4.1875,1043200,4.34375,4.34375,1.5685173273086548
14-09-1984,4.296875,4.359375,648800,4.375,4.34375,1.5685173273086548
17-09-1984,4.3125,4.3125,676800,4.40625,4.40625,1.5910857915878296
18-09-1984,4.40625,4.421875,744800,4.484375,4.484375,1.6192972660064697
19-09-1984,4.421875,4.453125,767200,4.515625,4.4375,1.6023706197738647
20-09-1984,4.40625,4.40625,536800,4.484375,4.46875,1.613654613494873
21-09-1984,4.4375,4.4375,721600,4.484375,4.4375,1.6023706197738647
24-09-1984,4.40625,4.421875,444000,4.484375,4.46875,1.613654613494873
25-09-1984,4.375,4.453125,1692000,4.453125,4.421875,1.5967282056808472
26-09-1984,4.359375,4.40625,603200,4.46875,4.359375,1.574159860610962
27-09-1984,4.28125,4.390625,757600,4.40625,4.375,1.5798020362854004
28-09-1984,4.15625,4.265625,817600,4.265625,4.21875,1.5233803987503052
01-10-1984,4.171875,4.1875,296800,4.25,4.21875,1.5233803987503052
02-10-1984,4.171875,4.203125,294400,4.28125,4.171875,1.5064542293548584
03-10-1984,4.0,4.140625,1790400,4.1875,4.03125,1.4556751251220703
04-10-1984,4.03125,4.03125,644000,4.09375,4.09375,1.4782439470291138
05-10-1984,4.125,4.125,310400,4.21875,4.171875,1.5064542293548584
08-10-1984,4.078125,4.15625,121600,4.171875,4.109375,1.4838844537734985
09-10-1984,4.09375,4.109375,1056000,4.15625,4.140625,1.4951701164245605
10-10-1984,4.03125,4.140625,262400,4.15625,4.15625,1.500812292098999
11-10-1984,4.140625,4.140625,126400,4.21875,4.21875,1.5233803987503052
12-10-1984,4.1875,4.1875,442400,4.328125,4.296875,1.5515912771224976
15-10-1984,4.28125,4.3125,1718400,4.390625,4.34375,1.5685173273086548
16-10-1984,4.1875,4.328125,244000,4.34375,4.21875,1.5233803987503052
17-10-1984,4.1875,4.21875,328800,4.28125,4.25,1.5346641540527344
18-10-1984,4.21875,4.21875,368000,4.34375,4.34375,1.5685173273086548
19-10-1984,4.34375,4.34375,1361600,4.5625,4.421875,1.5967282056808472
22-10-1984,4.375,4.421875,663200,4.421875,4.375,1.5798020362854004
23-10-1984,4.3125,4.34375,997600,4.375,4.34375,1.5685173273086548
24-10-1984,4.328125,4.328125,234400,4.4375,4.390625,1.5854439735412598
25-10-1984,4.328125,4.375,1270400,4.390625,4.34375,1.5685173273086548
26-10-1984,4.234375,4.3125,825600,4.34375,4.28125,1.5459487438201904
29-10-1984,4.25,4.265625,343200,4.28125,4.25,1.5346641540527344
30-10-1984,4.21875,4.25,420000,4.359375,4.328125,1.5628763437271118
31-10-1984,4.28125,4.28125,791200,4.3125,4.296875,1.5515912771224976
01-11-1984,4.09375,4.125,859200,4.15625,4.125,1.4895274639129639
02-11-1984,4.0625,4.078125,1601600,4.171875,4.140625,1.5116610527038574
05-11-1984,4.109375,4.125,407200,4.203125,4.203125,1.5344783067703247
06-11-1984,4.21875,4.21875,916000,4.296875,4.296875,1.56870436668396
07-11-1984,4.234375,4.28125,539200,4.296875,4.28125,1.5629997253417969
08-11-1984,4.25,4.28125,999200,4.296875,4.28125,1.5629997253417969
09-11-1984,4.234375,4.296875,480000,4.3125,4.28125,1.5629997253417969
12-11-1984,4.265625,4.265625,361600,4.3125,4.296875,1.56870436668396
13-11-1984,4.234375,4.265625,615200,4.296875,4.28125,1.5629997253417969
14-11-1984,4.25,4.265625,357600,4.328125,4.3125,1.5744080543518066
15-11-1984,4.28125,4.3125,764000,4.3125,4.3125,1.5744080543518066
16-11-1984,4.28125,4.3125,492000,4.359375,4.328125,1.580113410949707
19-11-1984,4.28125,4.296875,768000,4.375,4.3125,1.5744080543518066
20-11-1984,4.21875,4.265625,313600,4.296875,4.25,1.5515908002853394
21-11-1984,4.21875,4.28125,612800,4.28125,4.25,1.5515908002853394
23-11-1984,4.21875,4.234375,168000,4.28125,4.25,1.5515908002853394
26-11-1984,4.203125,4.25,520800,4.25,4.234375,1.545886516571045
27-11-1984,4.171875,4.203125,790400,4.234375,4.203125,1.5344783067703247
28-11-1984,4.125,4.1875,481600,4.1875,4.140625,1.5116610527038574
29-11-1984,4.03125,4.109375,733600,4.125,4.078125,1.4888428449630737
30-11-1984,4.078125,4.125,350400,4.1875,4.109375,1.5002511739730835
03-12-1984,4.0625,4.078125,244800,4.125,4.078125,1.4888428449630737
04-12-1984,4.078125,4.078125,598400,4.1875,4.15625,1.5173654556274414
05-12-1984,4.0625,4.125,287200,4.125,4.09375,1.4945478439331055
06-12-1984,4.078125,4.09375,384800,4.171875,4.140625,1.5116610527038574
07-12-1984,4.09375,4.09375,342400,4.140625,4.125,1.5059561729431152
10-12-1984,4.125,4.125,331200,4.171875,4.140625,1.5116610527038574
11-12-1984,4.125,4.125,416000,4.1875,4.140625,1.5116610527038574
12-12-1984,4.125,4.125,872800,4.15625,4.140625,1.5116610527038574
13-12-1984,4.09375,4.125,420000,4.15625,4.109375,1.5002511739730835
14-12-1984,4.0625,4.078125,412000,4.125,4.09375,1.4945478439331055
17-12-1984,4.0,4.125,1825600,4.125,4.0625,1.4831385612487793
18-12-1984,4.09375,4.09375,884000,4.171875,4.171875,1.5230695009231567
19-12-1984,4.15625,4.15625,755200,4.21875,4.15625,1.5173654556274414
20-12-1984,4.125,4.203125,779200,4.21875,4.125,1.5059561729431152
21-12-1984,3.9375,4.09375,1142400,4.15625,4.046875,1.4774341583251953
24-12-1984,4.046875,4.078125,260800,4.125,4.109375,1.5002511739730835
26-12-1984,4.03125,4.109375,103200,4.109375,4.046875,1.4774341583251953
27-12-1984,4.046875,4.078125,1440800,4.09375,4.0625,1.4831385612487793
28-12-1984,4.0,4.03125,319200,4.0625,4.046875,1.4774341583251953
31-12-1984,4.046875,4.078125,479200,4.171875,4.109375,1.5002511739730835
02-01-1985,4.109375,4.109375,910400,4.203125,4.15625,1.5173654556274414
03-01-1985,4.125,4.15625,364800,4.171875,4.15625,1.5173654556274414
04-01-1985,4.125,4.140625,332800,4.171875,4.125,1.5059561729431152
07-01-1985,4.140625,4.171875,1047200,4.21875,4.171875,1.5230695009231567
08-01-1985,4.15625,4.171875,320800,4.203125,4.1875,1.5287744998931885
09-01-1985,4.1875,4.21875,337600,4.21875,4.21875,1.5401819944381714
10-01-1985,4.203125,4.21875,1797600,4.296875,4.296875,1.56870436668396
11-01-1985,4.234375,4.296875,1031200,4.3125,4.28125,1.5629997253417969
14-01-1985,4.25,4.25,2920800,4.328125,4.328125,1.580113410949707
15-01-1985,4.296875,4.328125,5229600,4.4375,4.40625,1.6086348295211792
16-01-1985,4.40625,4.5,13840000,4.5625,4.515625,1.648566484451294
17-01-1985,4.484375,4.515625,1127200,4.515625,4.5,1.642861008644104
18-01-1985,4.515625,4.53125,2415200,4.578125,4.546875,1.6599745750427246
21-01-1985,4.53125,4.53125,1831200,4.71875,4.71875,1.7227225303649902
22-01-1985,4.71875,4.734375,2558400,4.859375,4.734375,1.7284269332885742
23-01-1985,4.71875,4.75,644800,4.796875,4.765625,1.7398360967636108
24-01-1985,4.71875,4.734375,940800,4.796875,4.734375,1.7284269332885742
25-01-1985,4.71875,4.71875,966400,4.921875,4.921875,1.7968788146972656
28-01-1985,4.859375,4.875,801600,5.0,5.0,1.8254011869430542
29-01-1985,4.875,4.921875,579200,4.96875,4.96875,1.8139925003051758
30-01-1985,4.890625,4.984375,1524000,4.984375,4.96875,1.8139925003051758
31-01-1985,4.78125,4.875,620800,4.90625,4.84375,1.768357276916504
01-02-1985,4.78125,4.8125,423200,4.84375,4.78125,1.7455393075942993
04-02-1985,4.765625,4.765625,1716000,4.828125,4.8125,1.7569483518600464
05-02-1985,4.75,4.8125,636800,4.828125,4.78125,1.7455393075942993
06-02-1985,4.65625,4.765625,1779200,4.8125,4.703125,1.7170186042785645
07-02-1985,4.6875,4.703125,568000,4.78125,4.78125,1.7455393075942993
08-02-1985,4.75,4.78125,959200,4.859375,4.859375,1.774061918258667
11-02-1985,4.78125,4.8125,571200,4.8125,4.796875,1.7694511413574219
12-02-1985,4.71875,4.765625,586400,4.796875,4.734375,1.746395468711853
13-02-1985,4.6875,4.71875,432000,4.75,4.734375,1.746395468711853
14-02-1985,4.65625,4.734375,1396800,4.734375,4.6875,1.7291055917739868
15-02-1985,4.625,4.65625,1879200,4.65625,4.625,1.7060508728027344
19-02-1985,4.609375,4.6875,924800,4.6875,4.609375,1.700286626815796
20-02-1985,4.578125,4.609375,1586400,4.625,4.59375,1.6945233345031738
21-02-1985,4.546875,4.59375,1268000,4.59375,4.578125,1.6887598037719727
22-02-1985,4.546875,4.5625,1045600,4.609375,4.59375,1.6945233345031738
25-02-1985,4.609375,4.609375,356800,4.609375,4.609375,1.700286626815796
26-02-1985,4.59375,4.609375,665600,4.65625,4.640625,1.7118141651153564
27-02-1985,4.625,4.625,451200,4.6875,4.65625,1.7175782918930054
28-02-1985,4.671875,4.6875,763200,4.71875,4.71875,1.7406322956085205
01-03-1985,4.71875,4.75,774400,4.859375,4.828125,1.7809778451919556
04-03-1985,4.734375,4.796875,907200,4.8125,4.765625,1.757922887802124
05-03-1985,4.71875,4.796875,940000,4.84375,4.75,1.7521599531173706
06-03-1985,4.75,4.75,1347200,4.859375,4.8125,1.7752153873443604
07-03-1985,4.765625,4.78125,678400,4.890625,4.828125,1.7809778451919556
08-03-1985,4.8125,4.8125,493600,4.90625,4.90625,1.8097970485687256
11-03-1985,4.859375,4.875,1016000,4.953125,4.875,1.798269271850586
12-03-1985,4.6875,4.84375,862400,4.875,4.75,1.7521599531173706
13-03-1985,4.6875,4.71875,280800,4.796875,4.703125,1.7348687648773193
14-03-1985,4.65625,4.6875,569600,4.8125,4.796875,1.7694511413574219
15-03-1985,4.625,4.765625,582400,4.8125,4.625,1.7060508728027344
18-03-1985,4.625,4.625,464000,4.703125,4.671875,1.7233415842056274
19-03-1985,4.640625,4.640625,392800,4.796875,4.75,1.7521599531173706
20-03-1985,4.65625,4.71875,212800,4.71875,4.6875,1.7291055917739868
21-03-1985,4.625,4.65625,334400,4.703125,4.671875,1.7233415842056274
22-03-1985,4.65625,4.6875,413600,4.734375,4.703125,1.7348687648773193
25-03-1985,4.65625,4.703125,211200,4.734375,4.703125,1.7348687648773193
26-03-1985,4.6875,4.71875,472000,4.78125,4.71875,1.7406322956085205
27-03-1985,4.703125,4.734375,250400,4.75,4.734375,1.746395468711853
28-03-1985,4.640625,4.734375,610400,4.734375,4.671875,1.7233415842056274
29-03-1985,4.625,4.703125,410400,4.703125,4.65625,1.7175782918930054
01-04-1985,4.65625,4.671875,460800,4.703125,4.6875,1.7291055917739868
02-04-1985,4.671875,4.703125,448000,4.71875,4.703125,1.7348687648773193
03-04-1985,4.671875,4.671875,388000,4.75,4.75,1.7521599531173706
04-04-1985,4.703125,4.703125,434400,4.75,4.734375,1.746395468711853
08-04-1985,4.703125,4.734375,388000,4.734375,4.734375,1.746395468711853
09-04-1985,4.6875,4.6875,454400,4.71875,4.71875,1.7406322956085205
10-04-1985,4.65625,4.78125,894400,4.78125,4.6875,1.7291055917739868
11-04-1985,4.671875,4.703125,643200,4.71875,4.6875,1.7291055917739868
12-04-1985,4.625,4.65625,1068800,4.6875,4.65625,1.7175782918930054
15-04-1985,4.625,4.625,189600,4.6875,4.6875,1.7291055917739868
16-04-1985,4.578125,4.640625,768800,4.671875,4.625,1.7060508728027344
17-04-1985,4.421875,4.5625,2160800,4.578125,4.484375,1.6541786193847656
18-04-1985,4.390625,4.40625,640800,4.4375,4.421875,1.6311219930648804
19-04-1985,4.390625,4.4375,615200,4.453125,4.4375,1.636886477470398
22-04-1985,4.34375,4.40625,780000,4.40625,4.40625,1.625359058380127
23-04-1985,4.34375,4.34375,564000,4.453125,4.453125,1.6426501274108887
24-04-1985,4.375,4.390625,4750400,4.453125,4.390625,1.619594693183899
25-04-1985,4.34375,4.4375,649600,4.4375,4.4375,1.636886477470398
26-04-1985,4.390625,4.40625,842400,4.4375,4.421875,1.6311219930648804
29-04-1985,4.375,4.421875,504000,4.421875,4.390625,1.619594693183899
30-04-1985,4.34375,4.359375,612800,4.375,4.359375,1.608067512512207
01-05-1985,4.34375,4.359375,2526400,4.40625,4.34375,1.6023041009902954
02-05-1985,4.3125,4.328125,977600,4.359375,4.359375,1.608067512512207
03-05-1985,4.34375,4.359375,497600,4.40625,4.390625,1.619594693183899
06-05-1985,4.3125,4.359375,297600,4.375,4.3125,1.60910165309906
07-05-1985,4.3125,4.34375,423200,4.375,4.375,1.6324210166931152
08-05-1985,4.328125,4.375,1213600,4.375,4.34375,1.6207609176635742
09-05-1985,4.359375,4.359375,549600,4.40625,4.40625,1.644080638885498
10-05-1985,4.40625,4.421875,1000000,4.53125,4.515625,1.6848927736282349
13-05-1985,4.46875,4.546875,528000,4.546875,4.5,1.6790621280670166
14-05-1985,4.53125,4.53125,852000,4.625,4.59375,1.71404230594635
15-05-1985,4.59375,4.609375,1112000,4.6875,4.640625,1.7315330505371094
16-05-1985,4.65625,4.671875,509600,4.75,4.75,1.772343397140503
17-05-1985,4.78125,4.78125,1585600,4.859375,4.84375,1.807324767112732
20-05-1985,4.875,4.890625,1227200,4.96875,4.9375,1.84230375289917
21-05-1985,4.90625,4.9375,665600,4.96875,4.953125,1.8481345176696777
22-05-1985,4.921875,4.9375,1565600,4.96875,4.9375,1.84230375289917
23-05-1985,4.875,4.921875,925600,4.953125,4.953125,1.8481345176696777
24-05-1985,4.890625,4.96875,918400,4.984375,4.921875,1.8364750146865845
28-05-1985,4.828125,4.90625,714400,4.921875,4.859375,1.8131542205810547
29-05-1985,4.828125,4.84375,803200,4.90625,4.875,1.8189843893051147
30-05-1985,4.84375,4.890625,470400,4.90625,4.875,1.8189843893051147
31-05-1985,4.84375,4.875,618400,4.90625,4.890625,1.824813723564148
03-06-1985,4.796875,4.859375,446400,4.890625,4.8125,1.7956639528274536
04-06-1985,4.78125,4.78125,4740800,4.96875,4.921875,1.8364750146865845
05-06-1985,4.9375,4.953125,2116000,5.109375,5.09375,1.9006047248840332
06-06-1985,5.03125,5.09375,1146400,5.109375,5.109375,1.906435251235962
07-06-1985,5.09375,5.09375,784000,5.1875,5.15625,1.923925757408142
10-06-1985,5.125,5.15625,580800,5.15625,5.125,1.9122650623321533
11-06-1985,5.09375,5.140625,719200,5.140625,5.109375,1.906435251235962
12-06-1985,5.078125,5.109375,701600,5.125,5.09375,1.9006047248840332
13-06-1985,5.078125,5.125,1678400,5.15625,5.09375,1.9006047248840332
14-06-1985,5.125,5.140625,594400,5.234375,5.21875,1.947244644165039
17-06-1985,5.1875,5.203125,363200,5.25,5.25,1.9589060544967651
18-06-1985,5.171875,5.21875,696800,5.28125,5.1875,1.9355851411819458
19-06-1985,5.15625,5.203125,1571200,5.28125,5.25,1.9589060544967651
20-06-1985,5.21875,5.21875,241600,5.28125,5.28125,1.9705668687820435
21-06-1985,5.25,5.25,808000,5.296875,5.296875,1.976395845413208
24-06-1985,5.21875,5.265625,1336800,5.28125,5.265625,1.964735984802246
25-06-1985,5.1875,5.25,1568000,5.359375,5.203125,1.9414145946502686
26-06-1985,5.1875,5.21875,676000,5.28125,5.25,1.9589060544967651
27-06-1985,5.21875,5.25,648000,5.296875,5.21875,1.947244644165039
28-06-1985,5.203125,5.25,646400,5.265625,5.234375,1.9530752897262573
01-07-1985,5.203125,5.234375,485600,5.296875,5.28125,1.9705668687820435
02-07-1985,5.25,5.265625,669600,5.3125,5.3125,1.9822273254394531
03-07-1985,5.28125,5.3125,1062400,5.4375,5.40625,2.0172064304351807
05-07-1985,5.390625,5.40625,444000,5.421875,5.421875,2.0230371952056885
08-07-1985,5.390625,5.390625,688000,5.421875,5.421875,2.0230371952056885
09-07-1985,5.328125,5.421875,791200,5.421875,5.390625,2.0113770961761475
10-07-1985,5.34375,5.375,2248800,5.40625,5.375,2.005546808242798
11-07-1985,5.328125,5.328125,1067200,5.390625,5.390625,2.0113770961761475
12-07-1985,5.390625,5.421875,568800,5.453125,5.453125,2.034696578979492
15-07-1985,5.4375,5.46875,708800,5.5,5.453125,2.034696578979492
16-07-1985,5.421875,5.453125,656800,5.53125,5.5,2.052186965942383
17-07-1985,5.59375,5.625,2698400,5.671875,5.671875,2.116318464279175
18-07-1985,5.625,5.671875,1896000,5.796875,5.78125,2.1571290493011475
19-07-1985,5.734375,5.75,1309600,5.90625,5.875,2.192108631134033
22-07-1985,5.71875,5.84375,429600,5.859375,5.765625,2.1512982845306396
23-07-1985,5.59375,5.796875,941600,5.8125,5.625,2.098828077316284
24-07-1985,5.5,5.65625,410400,5.65625,5.53125,2.0638480186462402
25-07-1985,5.5,5.53125,535200,5.5625,5.5625,2.075505495071411
26-07-1985,5.546875,5.546875,1002400,5.734375,5.71875,2.133807897567749
29-07-1985,5.59375,5.734375,928000,5.734375,5.640625,2.1046581268310547
30-07-1985,5.59375,5.625,361600,5.65625,5.640625,2.1046581268310547
31-07-1985,5.625,5.640625,216800,5.6875,5.671875,2.116318464279175
01-08-1985,5.625,5.671875,372800,5.6875,5.65625,2.110487461090088
02-08-1985,5.640625,5.671875,945600,5.734375,5.6875,2.1221485137939453
05-08-1985,5.640625,5.6875,348800,5.6875,5.65625,2.110487461090088
06-08-1985,5.46875,5.5,2713600,5.65625,5.5,2.070488929748535
07-08-1985,5.40625,5.5,1204000,5.53125,5.5,2.070488929748535
08-08-1985,5.5,5.53125,1320000,5.6875,5.6875,2.1410741806030273
09-08-1985,5.609375,5.65625,725600,5.703125,5.640625,2.1234290599823
12-08-1985,5.609375,5.609375,644000,5.65625,5.625,2.117546319961548
13-08-1985,5.625,5.640625,587200,5.6875,5.640625,2.1234290599823
14-08-1985,5.625,5.625,302400,5.6875,5.65625,2.1293084621429443
15-08-1985,5.53125,5.671875,822400,5.671875,5.53125,2.082253932952881
16-08-1985,5.375,5.5,678400,5.53125,5.421875,2.041079521179199
19-08-1985,5.421875,5.421875,441600,5.484375,5.453125,2.0528430938720703
20-08-1985,5.453125,5.484375,385600,5.578125,5.546875,2.088136911392212
21-08-1985,5.453125,5.53125,1249600,5.625,5.5625,2.094017505645752
22-08-1985,5.484375,5.59375,1018400,5.59375,5.5,2.070488929748535
23-08-1985,5.4375,5.46875,458400,5.5625,5.484375,2.0646071434020996
26-08-1985,5.484375,5.484375,340800,5.546875,5.5,2.070488929748535
27-08-1985,5.484375,5.484375,152800,5.5625,5.5625,2.094017505645752
28-08-1985,5.46875,5.5625,448800,5.578125,5.5,2.070488929748535
29-08-1985,5.484375,5.5,355200,5.546875,5.53125,2.082253932952881
30-08-1985,5.484375,5.53125,737600,5.546875,5.53125,2.082253932952881
03-09-1985,5.515625,5.546875,384000,5.6875,5.6875,2.1410741806030273
04-09-1985,5.625,5.6875,371200,5.734375,5.671875,2.13519287109375
05-09-1985,5.5625,5.6875,484000,5.6875,5.578125,2.0998990535736084
06-09-1985,5.484375,5.5625,406400,5.59375,5.546875,2.088136911392212
09-09-1985,5.5,5.5625,142400,5.5625,5.5,2.070488929748535
10-09-1985,5.46875,5.46875,272800,5.515625,5.5,2.070488929748535
11-09-1985,5.375,5.5,1280000,5.5,5.390625,2.0293147563934326
12-09-1985,5.34375,5.375,597600,5.4375,5.375,2.0234336853027344
13-09-1985,5.375,5.375,556800,5.4375,5.421875,2.041079521179199
16-09-1985,5.40625,5.453125,253600,5.53125,5.515625,2.076371908187866
17-09-1985,5.515625,5.515625,879200,5.625,5.609375,2.111664056777954
18-09-1985,5.484375,5.578125,427200,5.640625,5.484375,2.0646071434020996
19-09-1985,5.453125,5.515625,568000,5.515625,5.484375,2.0646071434020996
20-09-1985,5.421875,5.453125,589600,5.53125,5.46875,2.0587258338928223
23-09-1985,5.53125,5.53125,484000,5.59375,5.59375,2.1057815551757812
24-09-1985,5.578125,5.59375,599200,5.65625,5.609375,2.111664056777954
25-09-1985,5.546875,5.546875,301600,5.609375,5.609375,2.111664056777954
26-09-1985,5.53125,5.625,360000,5.625,5.59375,2.1057815551757812
30-09-1985,5.578125,5.59375,349600,5.625,5.625,2.117546319961548
01-10-1985,5.59375,5.609375,324000,5.703125,5.703125,2.1469569206237793
02-10-1985,5.59375,5.71875,1103200,5.796875,5.59375,2.1057815551757812
03-10-1985,5.578125,5.578125,260800,5.6875,5.609375,2.111664056777954
04-10-1985,5.546875,5.609375,794400,5.609375,5.578125,2.0998990535736084
07-10-1985,5.390625,5.5625,848800,5.5625,5.40625,2.0351974964141846
08-10-1985,5.40625,5.4375,253600,5.484375,5.453125,2.0528430938720703
09-10-1985,5.40625,5.421875,2060000,5.46875,5.4375,2.046961784362793
10-10-1985,5.421875,5.421875,260000,5.453125,5.4375,2.046961784362793
11-10-1985,5.40625,5.40625,1391200,5.46875,5.46875,2.0587258338928223
14-10-1985,5.453125,5.46875,680000,5.53125,5.53125,2.082253932952881
15-10-1985,5.53125,5.5625,476800,5.59375,5.59375,2.1057815551757812
16-10-1985,5.578125,5.578125,1112000,5.671875,5.671875,2.13519287109375
17-10-1985,5.640625,5.640625,757600,5.703125,5.6875,2.1410741806030273
18-10-1985,5.5625,5.671875,757600,5.703125,5.578125,2.0998990535736084
21-10-1985,5.5625,5.59375,1012800,5.734375,5.65625,2.1293084621429443
22-10-1985,5.65625,5.671875,692000,5.71875,5.703125,2.1469569206237793
23-10-1985,5.59375,5.703125,376800,5.703125,5.671875,2.13519287109375
24-10-1985,5.59375,5.65625,386400,5.671875,5.625,2.117546319961548
25-10-1985,5.515625,5.59375,182400,5.609375,5.609375,2.111664056777954
28-10-1985,5.546875,5.609375,180000,5.625,5.609375,2.111664056777954
29-10-1985,5.609375,5.609375,212800,5.65625,5.65625,2.1293084621429443
30-10-1985,5.625,5.625,640000,5.671875,5.671875,2.13519287109375
31-10-1985,5.65625,5.65625,524000,5.6875,5.6875,2.1410741806030273
01-11-1985,5.65625,5.65625,965600,5.890625,5.890625,2.217541456222534
04-11-1985,5.859375,5.90625,1089600,6.0,5.90625,2.223423480987549
05-11-1985,5.8125,6.015625,884000,6.015625,6.015625,2.285883665084839
06-11-1985,6.015625,6.015625,1521600,6.15625,6.046875,2.2977588176727295
07-11-1985,6.03125,6.046875,840000,6.15625,6.15625,2.339319944381714
08-11-1985,6.046875,6.125,337600,6.125,6.09375,2.3155722618103027
11-11-1985,6.03125,6.09375,656800,6.15625,6.15625,2.339319944381714
12-11-1985,6.125,6.125,1264800,6.25,6.234375,2.3690080642700195
13-11-1985,6.140625,6.25,449600,6.25,6.140625,2.333383798599243
14-11-1985,6.078125,6.125,614400,6.234375,6.171875,2.345257520675659
15-11-1985,6.15625,6.15625,1276800,6.3125,6.203125,2.35713267326355
18-11-1985,6.140625,6.21875,1349600,6.296875,6.296875,2.3927559852600098
19-11-1985,6.34375,6.375,854400,6.421875,6.421875,2.440256118774414
20-11-1985,6.34375,6.375,290400,6.40625,6.375,2.4224445819854736
21-11-1985,6.34375,6.375,668800,6.40625,6.375,2.4224445819854736
22-11-1985,6.203125,6.34375,374400,6.375,6.21875,2.363070249557495
25-11-1985,6.1875,6.3125,424800,6.3125,6.265625,2.380882978439331
26-11-1985,6.0625,6.234375,1265600,6.25,6.15625,2.339319944381714
27-11-1985,6.1875,6.1875,1169600,6.3125,6.28125,2.3868207931518555
29-11-1985,6.203125,6.25,924800,6.3125,6.234375,2.3690080642700195
02-12-1985,6.125,6.203125,472800,6.21875,6.203125,2.35713267326355
03-12-1985,6.171875,6.21875,650400,6.25,6.1875,2.3511950969696045
04-12-1985,6.03125,6.0625,2110400,6.1875,6.171875,2.345257520675659
05-12-1985,5.9375,6.15625,1506400,6.1875,5.9375,2.2561986446380615
06-12-1985,5.5625,5.90625,1225600,5.90625,5.859375,2.226511001586914
09-12-1985,5.828125,5.828125,827200,6.078125,5.96875,2.2680721282958984
10-12-1985,5.9375,5.9375,409600,6.03125,5.953125,2.262134313583374
11-12-1985,5.9375,5.9375,549600,6.0,5.984375,2.27401065826416
12-12-1985,5.90625,5.984375,1932000,6.0625,5.984375,2.27401065826416
13-12-1985,5.984375,5.984375,625600,6.234375,6.203125,2.35713267326355
16-12-1985,6.140625,6.1875,1236000,6.359375,6.34375,2.410569429397583
17-12-1985,6.1875,6.359375,1179200,6.359375,6.359375,2.416505813598633
18-12-1985,6.28125,6.328125,987200,6.375,6.34375,2.410569429397583
19-12-1985,6.28125,6.296875,683200,6.359375,6.296875,2.3927559852600098
20-12-1985,6.25,6.296875,795200,6.375,6.375,2.4224445819854736
23-12-1985,6.28125,6.3125,602400,6.375,6.359375,2.416505813598633
24-12-1985,6.09375,6.3125,727200,6.3125,6.140625,2.333383798599243
26-12-1985,6.09375,6.125,173600,6.140625,6.109375,2.3215086460113525
27-12-1985,6.078125,6.078125,525600,6.1875,6.1875,2.3511950969696045
30-12-1985,6.15625,6.1875,418400,6.265625,6.265625,2.380882978439331
31-12-1985,6.25,6.28125,786400,6.375,6.375,2.4224445819854736
02-01-1986,6.296875,6.375,540800,6.375,6.328125,2.404632806777954
03-01-1986,6.25,6.3125,650400,6.34375,6.296875,2.3927559852600098
06-01-1986,6.140625,6.296875,427200,6.296875,6.1875,2.3511950969696045
07-01-1986,6.03125,6.21875,592000,6.234375,6.125,2.327446460723877
08-01-1986,5.6875,6.15625,1376800,6.171875,5.71875,2.1730759143829346
09-01-1986,5.625,5.625,1164800,5.828125,5.828125,2.2146358489990234
10-01-1986,5.765625,5.8125,749600,5.84375,5.78125,2.1968259811401367
13-01-1986,5.765625,5.78125,688800,5.84375,5.78125,2.1968259811401367
14-01-1986,5.71875,5.78125,1518400,5.796875,5.765625,2.1908857822418213
15-01-1986,5.71875,5.75,1378400,5.90625,5.90625,2.2443227767944336
16-01-1986,5.875,5.921875,352000,6.03125,5.984375,2.27401065826416
17-01-1986,5.9375,5.953125,518400,6.0625,6.015625,2.285883665084839
20-01-1986,5.890625,5.984375,744800,5.984375,5.96875,2.2680721282958984
21-01-1986,5.875,5.953125,740000,6.0,5.921875,2.2502601146698
22-01-1986,5.8125,5.96875,1319200,6.0,5.8125,2.2086987495422363
23-01-1986,5.765625,5.78125,598400,5.875,5.828125,2.2146358489990234
24-01-1986,5.8125,5.8125,909600,5.953125,5.953125,2.262134313583374
27-01-1986,5.890625,5.90625,435200,5.984375,5.96875,2.2680721282958984
28-01-1986,5.9375,6.0,480800,6.0,5.953125,2.262134313583374
29-01-1986,5.953125,5.984375,848000,6.125,6.03125,2.291820764541626
30-01-1986,6.0,6.015625,881600,6.109375,6.0625,2.3036978244781494
31-01-1986,6.078125,6.109375,1335200,6.171875,6.140625,2.333383798599243
03-02-1986,6.109375,6.109375,628000,6.21875,6.203125,2.35713267326355
04-02-1986,6.21875,6.25,1524000,6.28125,6.234375,2.3690080642700195
05-02-1986,6.234375,6.25,1951200,6.328125,6.3125,2.398693799972534
06-02-1986,6.328125,6.34375,1742400,6.453125,6.421875,2.440256118774414
07-02-1986,6.359375,6.421875,972000,6.53125,6.53125,2.4818179607391357
10-02-1986,6.546875,6.703125,1145600,6.734375,6.703125,2.5471279621124268
11-02-1986,6.640625,6.875,1729600,6.890625,6.875,2.6340534687042236
12-02-1986,6.75,6.84375,1461600,6.90625,6.75,2.5861599445343018
13-02-1986,6.6875,6.71875,1157600,6.875,6.875,2.6340534687042236
14-02-1986,6.734375,6.90625,1000000,6.96875,6.96875,2.6699705123901367
18-02-1986,6.96875,7.0,1034400,7.15625,7.125,2.7298357486724854
19-02-1986,7.125,7.15625,1052000,7.34375,7.171875,2.747795581817627
20-02-1986,7.125,7.171875,2320800,7.234375,7.15625,2.741809844970703
21-02-1986,7.140625,7.15625,1183200,7.3125,7.265625,2.7837142944335938
24-02-1986,7.15625,7.21875,668800,7.3125,7.296875,2.7956864833831787
25-02-1986,7.15625,7.3125,1738400,7.34375,7.21875,2.7657554149627686
26-02-1986,7.21875,7.25,732000,7.296875,7.28125,2.789701461791992
27-02-1986,7.25,7.3125,463200,7.375,7.328125,2.8076608180999756
28-02-1986,7.46875,7.5,1215200,7.6875,7.6875,2.9453513622283936
03-03-1986,7.421875,7.6875,721600,7.6875,7.453125,2.8555521965026855
04-03-1986,7.34375,7.453125,1326400,7.6875,7.53125,2.8854851722717285
05-03-1986,7.46875,7.5625,562400,7.5625,7.5625,2.897458791732788
06-03-1986,7.5625,7.59375,1779200,8.046875,7.984375,3.0590922832489014
07-03-1986,7.84375,7.984375,1203200,7.984375,7.90625,3.029160737991333
10-03-1986,7.71875,7.90625,428000,7.96875,7.71875,2.957320213317871
11-03-1986,7.703125,7.703125,742400,7.921875,7.890625,3.02317214012146
12-03-1986,7.875,7.875,964800,8.15625,8.03125,3.0770511627197266
13-03-1986,7.921875,8.0625,636000,8.125,8.09375,3.1009979248046875
14-03-1986,7.53125,8.0625,1812800,8.125,8.0625,3.089024305343628
17-03-1986,7.78125,7.96875,766400,8.0625,7.984375,3.0590922832489014
18-03-1986,7.8125,7.96875,484800,7.984375,7.953125,3.0471208095550537
19-03-1986,7.8125,7.921875,692000,7.96875,7.90625,3.029160737991333
20-03-1986,7.875,7.90625,1108000,8.0625,8.0625,3.089024305343628
21-03-1986,8.0625,8.125,1337600,8.21875,8.15625,3.124943494796753
24-03-1986,8.125,8.21875,1558400,8.265625,8.203125,3.142902135848999
25-03-1986,7.9375,8.1875,685600,8.1875,8.109375,3.1069839000701904
26-03-1986,8.015625,8.109375,904000,8.109375,8.046875,3.083037853240967
27-03-1986,8.0,8.09375,678400,8.109375,8.015625,3.0710651874542236
31-03-1986,8.03125,8.078125,582400,8.109375,8.078125,3.0950098037719727
01-04-1986,8.015625,8.109375,619200,8.109375,8.015625,3.0710651874542236
02-04-1986,7.96875,8.03125,1211200,8.046875,8.046875,3.083037853240967
03-04-1986,7.9375,8.046875,392800,8.078125,7.96875,3.0531067848205566
04-04-1986,7.59375,7.9375,819200,8.09375,7.59375,2.909430980682373
07-04-1986,7.546875,7.59375,560800,7.65625,7.65625,2.933375597000122
08-04-1986,7.640625,7.671875,503200,7.875,7.75,2.969294786453247
09-04-1986,7.609375,7.8125,917600,7.890625,7.625,2.921405076980591
10-04-1986,7.375,7.65625,1039200,7.65625,7.59375,2.909430980682373
11-04-1986,7.546875,7.578125,458400,7.65625,7.625,2.921405076980591
14-04-1986,7.53125,7.65625,730400,7.671875,7.625,2.921405076980591
15-04-1986,7.625,7.65625,269600,7.734375,7.640625,2.927391290664673
16-04-1986,7.71875,7.71875,1074400,8.28125,8.25,3.1608633995056152
17-04-1986,7.9375,8.1875,801600,8.234375,8.0,3.0650784969329834
18-04-1986,7.640625,8.03125,1028000,8.046875,8.03125,3.0770511627197266
21-04-1986,8.0,8.09375,858400,8.109375,8.078125,3.0950098037719727
22-04-1986,8.125,8.21875,1219200,8.28125,8.25,3.1608633995056152
23-04-1986,8.1875,8.25,945600,8.28125,8.25,3.1608633995056152
24-04-1986,8.1875,8.1875,652800,8.265625,8.203125,3.142902135848999
25-04-1986,8.15625,8.203125,555200,8.234375,8.234375,3.154876232147217
28-04-1986,8.15625,8.234375,561600,8.265625,8.234375,3.154876232147217
29-04-1986,8.015625,8.203125,452000,8.203125,8.09375,3.1009979248046875
30-04-1986,8.09375,8.171875,1053600,8.28125,8.125,3.112971067428589
01-05-1986,8.03125,8.09375,796000,8.25,8.234375,3.154876232147217
02-05-1986,8.125,8.203125,712800,8.265625,8.203125,3.142902135848999
05-05-1986,8.125,8.171875,431200,8.25,8.21875,3.1488893032073975
06-05-1986,8.09375,8.09375,180800,8.1875,8.09375,3.123802423477173
07-05-1986,8.09375,8.140625,590400,8.25,8.234375,3.1780762672424316
08-05-1986,8.03125,8.28125,355200,8.28125,8.046875,3.1057114601135254
09-05-1986,7.921875,8.015625,398400,8.015625,7.921875,3.0574681758880615
12-05-1986,7.796875,7.9375,1021600,7.953125,7.796875,3.009223461151123
13-05-1986,7.65625,7.796875,651200,7.796875,7.703125,2.9730398654937744
14-05-1986,7.625,7.71875,809600,7.734375,7.625,2.942887783050537
15-05-1986,7.4375,7.640625,608000,7.640625,7.46875,2.882582187652588
16-05-1986,7.3125,7.4375,1061600,7.5,7.5,2.894643545150757
19-05-1986,7.515625,7.53125,737600,7.625,7.609375,2.9368584156036377
20-05-1986,7.5625,7.609375,799200,7.75,7.734375,2.9851012229919434
21-05-1986,7.640625,7.75,1017600,7.796875,7.75,2.9911317825317383
22-05-1986,7.734375,7.75,465600,7.90625,7.90625,3.051435947418213
23-05-1986,7.890625,7.921875,533600,8.03125,8.015625,3.093651056289673
27-05-1986,7.953125,7.984375,221600,8.015625,7.984375,3.081587791442871
28-05-1986,7.875,7.984375,617600,8.0,7.953125,3.0695295333862305
29-05-1986,7.8125,7.921875,1089600,7.9375,7.9375,3.0634963512420654
30-05-1986,7.828125,7.875,1028000,7.90625,7.890625,3.045405626296997
02-06-1986,7.875,7.90625,1261600,7.953125,7.953125,3.0695295333862305
03-06-1986,7.90625,7.921875,451200,7.953125,7.953125,3.0695295333862305
04-06-1986,7.96875,7.984375,777600,8.109375,8.09375,3.123802423477173
05-06-1986,8.015625,8.09375,804800,8.109375,8.109375,3.129833698272705
06-06-1986,7.890625,8.078125,664800,8.09375,7.921875,3.0574681758880615
09-06-1986,7.578125,7.890625,507200,7.890625,7.625,2.942887783050537
10-06-1986,7.59375,7.609375,776800,7.71875,7.65625,2.954948663711548
11-06-1986,7.625,7.671875,693600,7.734375,7.71875,2.979069709777832
12-06-1986,7.640625,7.6875,357600,7.859375,7.859375,3.033346652984619
13-06-1986,7.84375,7.84375,600000,8.03125,8.03125,3.0996811389923096
16-06-1986,7.9375,8.0,724000,8.0625,8.0625,3.111741304397583
17-06-1986,7.859375,8.0625,438400,8.0625,7.96875,3.07555890083313
18-06-1986,7.828125,7.96875,331200,7.96875,7.921875,3.0574681758880615
19-06-1986,7.6875,7.921875,492000,7.9375,7.78125,3.0031936168670654
20-06-1986,7.765625,7.78125,617600,7.875,7.84375,3.0273144245147705
23-06-1986,7.78125,7.875,881600,7.9375,7.90625,3.051435947418213
24-06-1986,7.890625,7.9375,989600,8.109375,8.0625,3.111741304397583
25-06-1986,8.078125,8.109375,1040000,8.171875,8.171875,3.1539552211761475
26-06-1986,8.21875,8.34375,1207200,8.6875,8.6875,3.3529632091522217
27-06-1986,8.53125,8.65625,572000,8.65625,8.59375,3.316779851913452
30-06-1986,8.5,8.5625,396000,8.640625,8.515625,3.2866265773773193
01-07-1986,8.46875,8.5,1366400,8.546875,8.53125,3.2926580905914307
02-07-1986,8.4375,8.53125,1432800,8.53125,8.46875,3.2685348987579346
03-07-1986,8.3125,8.484375,1009600,8.484375,8.421875,3.2504422664642334
07-07-1986,8.15625,8.453125,603200,8.453125,8.15625,3.1479251384735107
08-07-1986,7.765625,8.0,1141600,8.0,7.9375,3.0634963512420654
09-07-1986,7.828125,7.9375,952800,7.96875,7.921875,3.0574681758880615
10-07-1986,7.703125,7.921875,696000,7.921875,7.84375,3.0273144245147705
11-07-1986,7.78125,7.875,1339200,7.875,7.875,3.0393757820129395
14-07-1986,7.71875,7.84375,626400,7.84375,7.765625,2.9971628189086914
15-07-1986,7.5,7.71875,1178400,7.75,7.53125,2.906705141067505
16-07-1986,7.515625,7.625,808800,7.671875,7.515625,2.90067195892334
17-07-1986,7.5,7.5,1128000,7.671875,7.640625,2.9489200115203857
18-07-1986,7.65625,7.75,808800,7.90625,7.78125,3.0031936168670654
21-07-1986,7.65625,7.75,498400,7.75,7.71875,2.979069709777832
22-07-1986,7.6875,7.6875,740000,7.875,7.875,3.0393757820129395
23-07-1986,7.8125,7.859375,1444000,7.984375,7.96875,3.07555890083313
24-07-1986,7.9375,7.96875,552000,8.0625,8.0625,3.111741304397583
25-07-1986,7.96875,8.078125,448000,8.09375,8.09375,3.123802423477173
28-07-1986,7.8125,8.078125,580000,8.09375,7.8125,3.0152525901794434
29-07-1986,7.765625,7.828125,768800,7.828125,7.78125,3.0031936168670654
30-07-1986,7.65625,7.78125,514400,7.796875,7.703125,2.9730398654937744
31-07-1986,7.65625,7.734375,704800,7.734375,7.703125,2.9730398654937744
01-08-1986,7.59375,7.6875,1102400,7.6875,7.59375,2.9308273792266846
04-08-1986,7.5,7.5625,620800,7.859375,7.859375,3.033346652984619
05-08-1986,7.71875,7.71875,760800,7.875,7.71875,3.0019869804382324
06-08-1986,7.53125,7.625,532800,7.640625,7.5625,2.941218852996826
07-08-1986,7.484375,7.59375,768800,7.625,7.5,2.916912078857422
08-08-1986,7.40625,7.546875,616800,7.546875,7.53125,2.929065227508545
11-08-1986,7.53125,7.5625,1471200,7.859375,7.859375,3.0566821098327637
12-08-1986,7.78125,7.828125,952000,7.984375,7.921875,3.0809876918792725
13-08-1986,7.921875,7.921875,2211200,8.25,8.1875,3.1842944622039795
14-08-1986,8.203125,8.234375,1181600,8.28125,8.234375,3.2025256156921387
15-08-1986,8.15625,8.3125,1148000,8.3125,8.265625,3.214679718017578
18-08-1986,8.125,8.25,1219200,8.25,8.21875,3.1964495182037354
19-08-1986,8.171875,8.1875,1656000,8.203125,8.171875,3.1782186031341553
20-08-1986,8.1875,8.203125,1321600,8.359375,8.359375,3.2511417865753174
21-08-1986,8.34375,8.375,1935200,8.5,8.4375,3.281524419784546
22-08-1986,8.34375,8.46875,779200,8.46875,8.375,3.257218360900879
25-08-1986,8.28125,8.34375,586400,8.359375,8.296875,3.2268335819244385
26-08-1986,8.296875,8.296875,1156800,8.5,8.46875,3.2936789989471436
27-08-1986,8.4375,8.453125,981600,8.53125,8.53125,3.3179879188537598
28-08-1986,8.5,8.53125,1001600,8.671875,8.640625,3.3605244159698486
29-08-1986,8.59375,8.59375,3828000,8.796875,8.71875,3.3909101486206055
02-09-1986,8.453125,8.71875,1000000,8.71875,8.46875,3.2936789989471436
03-09-1986,8.375,8.46875,1630400,8.625,8.625,3.3544492721557617
04-09-1986,8.640625,8.65625,2874400,9.0,8.890625,3.4577550888061523
05-09-1986,8.625,8.875,1639200,8.921875,8.671875,3.3726797103881836
08-09-1986,8.515625,8.59375,1348000,8.78125,8.75,3.403066635131836
09-09-1986,8.625,8.78125,1900800,8.859375,8.65625,3.3666017055511475
10-09-1986,8.5625,8.65625,1460000,8.8125,8.8125,3.4273695945739746
11-09-1986,8.4375,8.8125,2055200,8.8125,8.46875,3.2936789989471436
12-09-1986,8.1875,8.484375,2328800,8.5,8.34375,3.2450647354125977
15-09-1986,8.390625,8.46875,1860800,8.484375,8.4375,3.281524419784546
16-09-1986,8.375,8.4375,1300800,8.484375,8.453125,3.287602663040161
17-09-1986,8.34375,8.453125,1265600,8.484375,8.34375,3.2450647354125977
18-09-1986,8.3125,8.34375,861600,8.40625,8.359375,3.2511417865753174
19-09-1986,8.28125,8.359375,1069600,8.421875,8.421875,3.2754476070404053
22-09-1986,8.34375,8.390625,415200,8.4375,8.421875,3.2754476070404053
23-09-1986,8.421875,8.4375,1432800,8.546875,8.546875,3.3240647315979004
24-09-1986,8.390625,8.5,820800,8.5625,8.5625,3.3301403522491455
25-09-1986,8.3125,8.5625,1181600,8.5625,8.375,3.257218360900879
26-09-1986,8.25,8.34375,456000,8.359375,8.3125,3.232910394668579
29-09-1986,7.9375,8.28125,1515200,8.28125,8.0,3.1113734245300293
30-09-1986,7.96875,7.96875,930400,8.0625,8.015625,3.1174514293670654
01-10-1986,8.015625,8.046875,1239200,8.1875,8.125,3.1599881649017334
02-10-1986,8.109375,8.171875,648800,8.203125,8.109375,3.153911828994751
03-10-1986,8.015625,8.078125,416000,8.1875,8.078125,3.141756296157837
06-10-1986,8.03125,8.046875,403200,8.15625,8.0625,3.1356804370880127
07-10-1986,8.046875,8.078125,541600,8.140625,8.078125,3.141756296157837
08-10-1986,8.078125,8.109375,1105600,8.21875,8.1875,3.1842944622039795
09-10-1986,8.21875,8.21875,1460800,8.28125,8.21875,3.1964495182037354
